[Info]
Number of Regions=0001
Version=1.3.1

[Region 1]
Region Name=Ef_3800
Dimension 1 name=Kinetic Energy [eV]
Dimension 1 size=41
Dimension 1 scale=3794 3794.1 3794.2 3794.3 3794.4 3794.5 3794.6 3794.7 3794.8 3794.9 3795 3795.1 3795.2 3795.3 3795.4 3795.5 3795.6 3795.7 3795.8 3795.9 3796 3796.1 3796.2 3796.3 3796.4 3796.5 3796.6 3796.7 3796.8 3796.9 3797 3797.1 3797.2 3797.3 3797.4 3797.5 3797.6 3797.7 3797.8 3797.9 3798

[Info 1]
Region Name=Ef_3800
Lens Mode=T_HiPPHAXPES
Pass Energy=100
Number of Sweeps=3
Excitation Energy=3.10021844987699E-317
Energy Scale=Kinetic
Acquisition Mode=Swept
Energy Unit=Kinetic
Center Energy=3796
Low Energy=3794
High Energy=3798
Energy Step=0.1
Step Time=471
Detector First X-Channel=1
Detector Last X-Channel=512
Detector First Y-Channel=1
Detector Last Y-Channel=460
Number of Slices=1
File=D:\Data\2018_11_RhFebeamtime\0306.pxt,.ibw,.txt
Sequence=D:\SES_1.7.2_Win64_Package\SES_1.7.2_Win64\Sequences\factory.seq
Spectrum Name=Ef_3800
Instrument=HiPP-2 10kV-9862
Location=
User=
Sample=
Comments=Testing the voltage output;
Date=2018-11-20
Time=23:17:05
Time per Spectrum Channel=121.518
DetectorMode=ADC
[Run Mode Information 1]



[Data 1]
 3.79400000000000E+0003  1.84390000000000E+0004
 3.79410000000000E+0003  1.71230000000000E+0004
 3.79420000000000E+0003  1.66830000000000E+0004
 3.79430000000000E+0003  1.72710000000000E+0004
 3.79440000000000E+0003  1.58840000000000E+0004
 3.79450000000000E+0003  1.68720000000000E+0004
 3.79460000000000E+0003  1.60970000000000E+0004
 3.79470000000000E+0003  1.64970000000000E+0004
 3.79480000000000E+0003  1.64000000000000E+0004
 3.79490000000000E+0003  1.71340000000000E+0004
 3.79500000000000E+0003  1.75670000000000E+0004
 3.79510000000000E+0003  1.44780000000000E+0004
 3.79520000000000E+0003  1.49570000000000E+0004
 3.79530000000000E+0003  1.55470000000000E+0004
 3.79540000000000E+0003  1.46050000000000E+0004
 3.79550000000000E+0003  1.41760000000000E+0004
 3.79560000000000E+0003  1.50210000000000E+0004
 3.79570000000000E+0003  1.49070000000000E+0004
 3.79580000000000E+0003  1.44880000000000E+0004
 3.79590000000000E+0003  1.35600000000000E+0004
 3.79600000000000E+0003  1.32540000000000E+0004
 3.79610000000000E+0003  1.10380000000000E+0004
 3.79620000000000E+0003  8.04800000000000E+0003
 3.79630000000000E+0003  4.85400000000000E+0003
 3.79640000000000E+0003  2.68800000000000E+0003
 3.79650000000000E+0003  1.70700000000000E+0003
 3.79660000000000E+0003  9.27000000000000E+0002
 3.79670000000000E+0003  4.94000000000000E+0002
 3.79680000000000E+0003  5.93000000000000E+0002
 3.79690000000000E+0003  7.97000000000000E+0002
 3.79700000000000E+0003  4.59000000000000E+0002
 3.79710000000000E+0003  4.70000000000000E+0002
 3.79720000000000E+0003  7.71000000000000E+0002
 3.79730000000000E+0003  5.26000000000000E+0002
 3.79740000000000E+0003  6.37000000000000E+0002
 3.79750000000000E+0003  7.91000000000000E+0002
 3.79760000000000E+0003  4.27000000000000E+0002
 3.79770000000000E+0003  3.80000000000000E+0002
 3.79780000000000E+0003  5.66000000000000E+0002
 3.79790000000000E+0003  6.57000000000000E+0002
 3.79800000000000E+0003  7.28000000000000E+0002

