[Info]
Number of Regions=0001
Version=1.3.1

[Region 1]
Region Name=Rh_3d_3700
Dimension 1 name=Kinetic Energy [eV]
Dimension 1 size=234
Dimension 1 scale=3378 3378.06 3378.12 3378.18 3378.24 3378.3 3378.36 3378.42 3378.48 3378.54 3378.6 3378.66 3378.72 3378.78 3378.84 3378.9 3378.96 3379.02 3379.08 3379.14 3379.2 3379.26 3379.32 3379.38 3379.44 3379.5 3379.56 3379.62 3379.68 3379.74 3379.8 3379.86 3379.92 3379.98 3380.04 3380.1 3380.16 3380.22 3380.28 3380.34 3380.4 3380.46 3380.52 3380.58 3380.64 3380.7 3380.76 3380.82 3380.88 3380.94 3381 3381.06 3381.12 3381.18 3381.24 3381.3 3381.36 3381.42 3381.48 3381.54 3381.6 3381.66 3381.72 3381.78 3381.84 3381.9 3381.96 3382.02 3382.08 3382.14 3382.2 3382.26 3382.32 3382.38 3382.44 3382.5 3382.56 3382.62 3382.68 3382.74 3382.8 3382.86 3382.92 3382.98 3383.04 3383.1 3383.16 3383.22 3383.28 3383.34 3383.4 3383.46 3383.52 3383.58 3383.64 3383.7 3383.76 3383.82 3383.88 3383.94 3384 3384.06 3384.12 3384.18 3384.24 3384.3 3384.36 3384.42 3384.48 3384.54 3384.6 3384.66 3384.72 3384.78 3384.84 3384.9 3384.96 3385.02 3385.08 3385.14 3385.2 3385.26 3385.32 3385.38 3385.44 3385.5 3385.56 3385.62 3385.68 3385.74 3385.8 3385.86 3385.92 3385.98 3386.04 3386.1 3386.16 3386.22 3386.28 3386.34 3386.4 3386.46 3386.52 3386.58 3386.64 3386.7 3386.76 3386.82 3386.88 3386.94 3387 3387.06 3387.12 3387.18 3387.24 3387.3 3387.36 3387.42 3387.48 3387.54 3387.6 3387.66 3387.72 3387.78 3387.84 3387.9 3387.96 3388.02 3388.08 3388.14 3388.2 3388.26 3388.32 3388.38 3388.44 3388.5 3388.56 3388.62 3388.68 3388.74 3388.8 3388.86 3388.92 3388.98 3389.04 3389.1 3389.16 3389.22 3389.28 3389.34 3389.4 3389.46 3389.52 3389.58 3389.64 3389.7 3389.76 3389.82 3389.88 3389.94 3390 3390.06 3390.12 3390.18 3390.24 3390.3 3390.36 3390.42 3390.48 3390.54 3390.6 3390.66 3390.72 3390.78 3390.84 3390.9 3390.96 3391.02 3391.08 3391.14 3391.2 3391.26 3391.32 3391.38 3391.44 3391.5 3391.56 3391.62 3391.68 3391.74 3391.8 3391.86 3391.92 3391.98

[Info 1]
Region Name=Rh_3d_3700
Lens Mode=T_HiPPHAXPES
Pass Energy=100
Number of Sweeps=100
Excitation Energy=3.10021844987699E-317
Energy Scale=Kinetic
Acquisition Mode=Swept
Energy Unit=Kinetic
Center Energy=3385
Low Energy=3378
High Energy=3392
Energy Step=0.06
Step Time=14
Detector First X-Channel=76
Detector Last X-Channel=512
Detector First Y-Channel=33
Detector Last Y-Channel=460
Number of Slices=1
File=D:\Data\20180328\0055.pxt,.ibw,.txt
Sequence=D:\SES_1.7.2_Win64_Package\SES_1.7.2_Win64\Sequences\factory.seq
Spectrum Name=Rh_3d_3700
Instrument=HiPP-2 10kV-9862
Location=SU
User=POLARIS
Sample=Rh 111
Comments=Pass energy 200;Slit 700;30 um front cone;
Date=2018-03-31
Time=19:58:10
Time per Spectrum Channel=170.8
DetectorMode=ADC
[Run Mode Information 1]



[Data 1]
 3.37800000000000E+0003  6.64340000000000E+0004
 3.37806000000000E+0003  6.99860000000000E+0004
 3.37812000000000E+0003  6.75150000000000E+0004
 3.37818000000000E+0003  6.54620000000000E+0004
 3.37824000000000E+0003  6.63110000000000E+0004
 3.37830000000000E+0003  6.63330000000000E+0004
 3.37836000000000E+0003  6.71960000000000E+0004
 3.37842000000000E+0003  6.55490000000000E+0004
 3.37848000000000E+0003  6.73170000000000E+0004
 3.37854000000000E+0003  6.95070000000000E+0004
 3.37860000000000E+0003  6.84820000000000E+0004
 3.37866000000000E+0003  6.99570000000000E+0004
 3.37872000000000E+0003  6.71510000000000E+0004
 3.37878000000000E+0003  6.56490000000000E+0004
 3.37884000000000E+0003  6.61710000000000E+0004
 3.37890000000000E+0003  6.53830000000000E+0004
 3.37896000000000E+0003  6.64590000000000E+0004
 3.37902000000000E+0003  6.68520000000000E+0004
 3.37908000000000E+0003  6.55100000000000E+0004
 3.37914000000000E+0003  6.77430000000000E+0004
 3.37920000000000E+0003  6.68110000000000E+0004
 3.37926000000000E+0003  6.66750000000000E+0004
 3.37932000000000E+0003  6.76100000000000E+0004
 3.37938000000000E+0003  6.69570000000000E+0004
 3.37944000000000E+0003  6.56300000000000E+0004
 3.37950000000000E+0003  6.54000000000000E+0004
 3.37956000000000E+0003  6.62820000000000E+0004
 3.37962000000000E+0003  6.82050000000000E+0004
 3.37968000000000E+0003  6.79780000000000E+0004
 3.37974000000000E+0003  6.61110000000000E+0004
 3.37980000000000E+0003  6.61730000000000E+0004
 3.37986000000000E+0003  6.55190000000000E+0004
 3.37992000000000E+0003  6.70070000000000E+0004
 3.37998000000000E+0003  6.63010000000000E+0004
 3.38004000000000E+0003  6.82580000000000E+0004
 3.38010000000000E+0003  6.64060000000000E+0004
 3.38016000000000E+0003  6.96380000000000E+0004
 3.38022000000000E+0003  7.00270000000000E+0004
 3.38028000000000E+0003  6.80910000000000E+0004
 3.38034000000000E+0003  7.00310000000000E+0004
 3.38040000000000E+0003  6.86620000000000E+0004
 3.38046000000000E+0003  6.88400000000000E+0004
 3.38052000000000E+0003  6.88050000000000E+0004
 3.38058000000000E+0003  6.66840000000000E+0004
 3.38064000000000E+0003  6.81220000000000E+0004
 3.38070000000000E+0003  7.03360000000000E+0004
 3.38076000000000E+0003  6.85210000000000E+0004
 3.38082000000000E+0003  6.95750000000000E+0004
 3.38088000000000E+0003  6.92900000000000E+0004
 3.38094000000000E+0003  6.88030000000000E+0004
 3.38100000000000E+0003  6.75420000000000E+0004
 3.38106000000000E+0003  6.88720000000000E+0004
 3.38112000000000E+0003  6.94020000000000E+0004
 3.38118000000000E+0003  7.07310000000000E+0004
 3.38124000000000E+0003  6.73670000000000E+0004
 3.38130000000000E+0003  6.75860000000000E+0004
 3.38136000000000E+0003  6.79800000000000E+0004
 3.38142000000000E+0003  6.78920000000000E+0004
 3.38148000000000E+0003  7.08050000000000E+0004
 3.38154000000000E+0003  6.81620000000000E+0004
 3.38160000000000E+0003  7.00980000000000E+0004
 3.38166000000000E+0003  6.93220000000000E+0004
 3.38172000000000E+0003  6.91610000000000E+0004
 3.38178000000000E+0003  6.65180000000000E+0004
 3.38184000000000E+0003  7.08090000000000E+0004
 3.38190000000000E+0003  7.10840000000000E+0004
 3.38196000000000E+0003  6.86090000000000E+0004
 3.38202000000000E+0003  6.98510000000000E+0004
 3.38208000000000E+0003  7.04410000000000E+0004
 3.38214000000000E+0003  6.85430000000000E+0004
 3.38220000000000E+0003  7.00300000000000E+0004
 3.38226000000000E+0003  7.10860000000000E+0004
 3.38232000000000E+0003  7.02950000000000E+0004
 3.38238000000000E+0003  7.02480000000000E+0004
 3.38244000000000E+0003  7.06120000000000E+0004
 3.38250000000000E+0003  7.11800000000000E+0004
 3.38256000000000E+0003  6.99390000000000E+0004
 3.38262000000000E+0003  7.17620000000000E+0004
 3.38268000000000E+0003  7.05400000000000E+0004
 3.38274000000000E+0003  7.20540000000000E+0004
 3.38280000000000E+0003  7.01490000000000E+0004
 3.38286000000000E+0003  7.13300000000000E+0004
 3.38292000000000E+0003  7.12290000000000E+0004
 3.38298000000000E+0003  7.22820000000000E+0004
 3.38304000000000E+0003  7.28160000000000E+0004
 3.38310000000000E+0003  7.26990000000000E+0004
 3.38316000000000E+0003  7.39980000000000E+0004
 3.38322000000000E+0003  7.59850000000000E+0004
 3.38328000000000E+0003  7.55980000000000E+0004
 3.38334000000000E+0003  7.57490000000000E+0004
 3.38340000000000E+0003  7.34830000000000E+0004
 3.38346000000000E+0003  7.41990000000000E+0004
 3.38352000000000E+0003  7.49440000000000E+0004
 3.38358000000000E+0003  7.46180000000000E+0004
 3.38364000000000E+0003  7.50480000000000E+0004
 3.38370000000000E+0003  7.32870000000000E+0004
 3.38376000000000E+0003  7.35660000000000E+0004
 3.38382000000000E+0003  7.48230000000000E+0004
 3.38388000000000E+0003  7.59590000000000E+0004
 3.38394000000000E+0003  7.22630000000000E+0004
 3.38400000000000E+0003  7.19450000000000E+0004
 3.38406000000000E+0003  7.05850000000000E+0004
 3.38412000000000E+0003  7.29190000000000E+0004
 3.38418000000000E+0003  7.27760000000000E+0004
 3.38424000000000E+0003  7.37510000000000E+0004
 3.38430000000000E+0003  7.20910000000000E+0004
 3.38436000000000E+0003  7.43980000000000E+0004
 3.38442000000000E+0003  7.08840000000000E+0004
 3.38448000000000E+0003  7.19860000000000E+0004
 3.38454000000000E+0003  7.09590000000000E+0004
 3.38460000000000E+0003  7.44110000000000E+0004
 3.38466000000000E+0003  7.29500000000000E+0004
 3.38472000000000E+0003  7.48540000000000E+0004
 3.38478000000000E+0003  7.14170000000000E+0004
 3.38484000000000E+0003  7.10880000000000E+0004
 3.38490000000000E+0003  7.14010000000000E+0004
 3.38496000000000E+0003  7.15100000000000E+0004
 3.38502000000000E+0003  7.32140000000000E+0004
 3.38508000000000E+0003  7.29670000000000E+0004
 3.38514000000000E+0003  7.18910000000000E+0004
 3.38520000000000E+0003  7.24790000000000E+0004
 3.38526000000000E+0003  7.42560000000000E+0004
 3.38532000000000E+0003  7.25400000000000E+0004
 3.38538000000000E+0003  7.15480000000000E+0004
 3.38544000000000E+0003  7.21530000000000E+0004
 3.38550000000000E+0003  7.30530000000000E+0004
 3.38556000000000E+0003  7.34920000000000E+0004
 3.38562000000000E+0003  7.28120000000000E+0004
 3.38568000000000E+0003  7.28470000000000E+0004
 3.38574000000000E+0003  7.47150000000000E+0004
 3.38580000000000E+0003  7.17200000000000E+0004
 3.38586000000000E+0003  7.45580000000000E+0004
 3.38592000000000E+0003  7.42700000000000E+0004
 3.38598000000000E+0003  7.43200000000000E+0004
 3.38604000000000E+0003  7.30140000000000E+0004
 3.38610000000000E+0003  7.27890000000000E+0004
 3.38616000000000E+0003  7.35880000000000E+0004
 3.38622000000000E+0003  7.46070000000000E+0004
 3.38628000000000E+0003  7.34260000000000E+0004
 3.38634000000000E+0003  7.25670000000000E+0004
 3.38640000000000E+0003  7.26830000000000E+0004
 3.38646000000000E+0003  7.50050000000000E+0004
 3.38652000000000E+0003  7.37320000000000E+0004
 3.38658000000000E+0003  7.52860000000000E+0004
 3.38664000000000E+0003  7.55890000000000E+0004
 3.38670000000000E+0003  7.34170000000000E+0004
 3.38676000000000E+0003  7.50970000000000E+0004
 3.38682000000000E+0003  7.40430000000000E+0004
 3.38688000000000E+0003  7.42650000000000E+0004
 3.38694000000000E+0003  7.30370000000000E+0004
 3.38700000000000E+0003  7.22120000000000E+0004
 3.38706000000000E+0003  7.37800000000000E+0004
 3.38712000000000E+0003  7.55920000000000E+0004
 3.38718000000000E+0003  7.58580000000000E+0004
 3.38724000000000E+0003  7.31190000000000E+0004
 3.38730000000000E+0003  7.55150000000000E+0004
 3.38736000000000E+0003  7.54950000000000E+0004
 3.38742000000000E+0003  7.34240000000000E+0004
 3.38748000000000E+0003  7.46300000000000E+0004
 3.38754000000000E+0003  7.69200000000000E+0004
 3.38760000000000E+0003  7.57750000000000E+0004
 3.38766000000000E+0003  7.53250000000000E+0004
 3.38772000000000E+0003  7.68150000000000E+0004
 3.38778000000000E+0003  7.65270000000000E+0004
 3.38784000000000E+0003  7.63360000000000E+0004
 3.38790000000000E+0003  7.65190000000000E+0004
 3.38796000000000E+0003  7.64810000000000E+0004
 3.38802000000000E+0003  7.56520000000000E+0004
 3.38808000000000E+0003  7.81710000000000E+0004
 3.38814000000000E+0003  7.63400000000000E+0004
 3.38820000000000E+0003  7.81330000000000E+0004
 3.38826000000000E+0003  7.59780000000000E+0004
 3.38832000000000E+0003  7.72070000000000E+0004
 3.38838000000000E+0003  7.66300000000000E+0004
 3.38844000000000E+0003  8.01530000000000E+0004
 3.38850000000000E+0003  7.70280000000000E+0004
 3.38856000000000E+0003  7.57650000000000E+0004
 3.38862000000000E+0003  7.71730000000000E+0004
 3.38868000000000E+0003  7.63590000000000E+0004
 3.38874000000000E+0003  7.79130000000000E+0004
 3.38880000000000E+0003  7.70880000000000E+0004
 3.38886000000000E+0003  8.05040000000000E+0004
 3.38892000000000E+0003  7.89630000000000E+0004
 3.38898000000000E+0003  7.66610000000000E+0004
 3.38904000000000E+0003  7.93360000000000E+0004
 3.38910000000000E+0003  7.73110000000000E+0004
 3.38916000000000E+0003  7.86390000000000E+0004
 3.38922000000000E+0003  8.05390000000000E+0004
 3.38928000000000E+0003  8.16140000000000E+0004
 3.38934000000000E+0003  7.95610000000000E+0004
 3.38940000000000E+0003  8.02810000000000E+0004
 3.38946000000000E+0003  8.00230000000000E+0004
 3.38952000000000E+0003  7.90930000000000E+0004
 3.38958000000000E+0003  7.84190000000000E+0004
 3.38964000000000E+0003  7.67780000000000E+0004
 3.38970000000000E+0003  7.57820000000000E+0004
 3.38976000000000E+0003  7.56500000000000E+0004
 3.38982000000000E+0003  7.59910000000000E+0004
 3.38988000000000E+0003  7.56300000000000E+0004
 3.38994000000000E+0003  7.62240000000000E+0004
 3.39000000000000E+0003  7.37420000000000E+0004
 3.39006000000000E+0003  7.24380000000000E+0004
 3.39012000000000E+0003  7.03540000000000E+0004
 3.39018000000000E+0003  6.91520000000000E+0004
 3.39024000000000E+0003  6.69830000000000E+0004
 3.39030000000000E+0003  6.65910000000000E+0004
 3.39036000000000E+0003  6.68620000000000E+0004
 3.39042000000000E+0003  6.58630000000000E+0004
 3.39048000000000E+0003  6.34970000000000E+0004
 3.39054000000000E+0003  6.60660000000000E+0004
 3.39060000000000E+0003  6.38290000000000E+0004
 3.39066000000000E+0003  6.43420000000000E+0004
 3.39072000000000E+0003  6.09340000000000E+0004
 3.39078000000000E+0003  6.36740000000000E+0004
 3.39084000000000E+0003  6.40110000000000E+0004
 3.39090000000000E+0003  6.27400000000000E+0004
 3.39096000000000E+0003  6.22700000000000E+0004
 3.39102000000000E+0003  6.43750000000000E+0004
 3.39108000000000E+0003  6.39510000000000E+0004
 3.39114000000000E+0003  6.15620000000000E+0004
 3.39120000000000E+0003  6.00040000000000E+0004
 3.39126000000000E+0003  6.17910000000000E+0004
 3.39132000000000E+0003  6.25720000000000E+0004
 3.39138000000000E+0003  5.98170000000000E+0004
 3.39144000000000E+0003  5.95010000000000E+0004
 3.39150000000000E+0003  6.23400000000000E+0004
 3.39156000000000E+0003  6.18920000000000E+0004
 3.39162000000000E+0003  6.21490000000000E+0004
 3.39168000000000E+0003  5.89880000000000E+0004
 3.39174000000000E+0003  5.94760000000000E+0004
 3.39180000000000E+0003  6.03010000000000E+0004
 3.39186000000000E+0003  5.93590000000000E+0004
 3.39192000000000E+0003  6.02170000000000E+0004
 3.39198000000000E+0003  5.98730000000000E+0004

