[Info]
Number of Regions=0002
Version=1.3.1

[Region 1]
Region Name=C1s_4600
Dimension 1 name=Kinetic Energy [eV]
Dimension 1 size=161
Dimension 1 scale=4300 4300.1 4300.2 4300.3 4300.4 4300.5 4300.6 4300.7 4300.8 4300.9 4301 4301.1 4301.2 4301.3 4301.4 4301.5 4301.6 4301.7 4301.8 4301.9 4302 4302.1 4302.2 4302.3 4302.4 4302.5 4302.6 4302.7 4302.8 4302.9 4303 4303.1 4303.2 4303.3 4303.4 4303.5 4303.6 4303.7 4303.8 4303.9 4304 4304.1 4304.2 4304.3 4304.4 4304.5 4304.6 4304.7 4304.8 4304.9 4305 4305.1 4305.2 4305.3 4305.4 4305.5 4305.6 4305.7 4305.8 4305.9 4306 4306.1 4306.2 4306.3 4306.4 4306.5 4306.6 4306.7 4306.8 4306.9 4307 4307.1 4307.2 4307.3 4307.4 4307.5 4307.6 4307.7 4307.8 4307.9 4308 4308.1 4308.2 4308.3 4308.4 4308.5 4308.6 4308.7 4308.8 4308.9 4309 4309.1 4309.2 4309.3 4309.4 4309.5 4309.6 4309.7 4309.8 4309.9 4310 4310.1 4310.2 4310.3 4310.4 4310.5 4310.6 4310.7 4310.8 4310.9 4311 4311.1 4311.2 4311.3 4311.4 4311.5 4311.6 4311.7 4311.8 4311.9 4312 4312.1 4312.2 4312.3 4312.4 4312.5 4312.6 4312.7 4312.8 4312.9 4313 4313.1 4313.2 4313.3 4313.4 4313.5 4313.6 4313.7 4313.8 4313.9 4314 4314.1 4314.2 4314.3 4314.4 4314.5 4314.6 4314.7 4314.8 4314.9 4315 4315.1 4315.2 4315.3 4315.4 4315.5 4315.6 4315.7 4315.8 4315.9 4316

[Info 1]
Region Name=C1s_4600
Lens Mode=T_HiPPHAXPES
Pass Energy=100
Number of Sweeps=2
Excitation Energy=3.10021844987699E-317
Energy Scale=Kinetic
Acquisition Mode=Swept
Energy Unit=Kinetic
Center Energy=4308
Low Energy=4300
High Energy=4316
Energy Step=0.1
Step Time=257
Detector First X-Channel=1
Detector Last X-Channel=512
Detector First Y-Channel=1
Detector Last Y-Channel=460
Number of Slices=1
File=D:\Data\2019_Blomberg_Pd100\Pd100_0077.pxt,.ibw,.txt
Sequence=D:\Data\2018_11_26_Copper\Sequence_files_Copper.seq
Spectrum Name=Pd100_C1s_4600
Instrument=HiPP-2 10kV-9862
Location=
User=
Sample=Pd100
Comments=Pd100 CO oxidation;
Date=2019-03-24
Time=09:59:36
Time per Spectrum Channel=44.204
DetectorMode=ADC
[Run Mode Information 1]
Name=Add Dimension


[Data 1]
 4.30000000000000E+0003  5.41100000000000E+0003
 4.30010000000000E+0003  5.42600000000000E+0003
 4.30020000000000E+0003  4.71000000000000E+0003
 4.30030000000000E+0003  6.06600000000000E+0003
 4.30040000000000E+0003  5.17900000000000E+0003
 4.30050000000000E+0003  4.65500000000000E+0003
 4.30060000000000E+0003  4.47000000000000E+0003
 4.30070000000000E+0003  5.61000000000000E+0003
 4.30080000000000E+0003  5.57200000000000E+0003
 4.30090000000000E+0003  4.57500000000000E+0003
 4.30100000000000E+0003  4.85600000000000E+0003
 4.30110000000000E+0003  5.42500000000000E+0003
 4.30120000000000E+0003  5.73000000000000E+0003
 4.30130000000000E+0003  5.33700000000000E+0003
 4.30140000000000E+0003  5.03800000000000E+0003
 4.30150000000000E+0003  5.53400000000000E+0003
 4.30160000000000E+0003  5.15400000000000E+0003
 4.30170000000000E+0003  5.14200000000000E+0003
 4.30180000000000E+0003  6.05300000000000E+0003
 4.30190000000000E+0003  4.96900000000000E+0003
 4.30200000000000E+0003  5.42900000000000E+0003
 4.30210000000000E+0003  5.31700000000000E+0003
 4.30220000000000E+0003  5.17400000000000E+0003
 4.30230000000000E+0003  5.90800000000000E+0003
 4.30240000000000E+0003  5.30900000000000E+0003
 4.30250000000000E+0003  5.45300000000000E+0003
 4.30260000000000E+0003  5.74400000000000E+0003
 4.30270000000000E+0003  5.31700000000000E+0003
 4.30280000000000E+0003  5.21800000000000E+0003
 4.30290000000000E+0003  5.32000000000000E+0003
 4.30300000000000E+0003  5.18200000000000E+0003
 4.30310000000000E+0003  5.64700000000000E+0003
 4.30320000000000E+0003  5.08200000000000E+0003
 4.30330000000000E+0003  5.34100000000000E+0003
 4.30340000000000E+0003  5.19900000000000E+0003
 4.30350000000000E+0003  6.57500000000000E+0003
 4.30360000000000E+0003  6.00900000000000E+0003
 4.30370000000000E+0003  5.78100000000000E+0003
 4.30380000000000E+0003  5.38300000000000E+0003
 4.30390000000000E+0003  5.56000000000000E+0003
 4.30400000000000E+0003  5.27900000000000E+0003
 4.30410000000000E+0003  6.49600000000000E+0003
 4.30420000000000E+0003  6.03900000000000E+0003
 4.30430000000000E+0003  6.00700000000000E+0003
 4.30440000000000E+0003  5.74100000000000E+0003
 4.30450000000000E+0003  6.65200000000000E+0003
 4.30460000000000E+0003  5.91700000000000E+0003
 4.30470000000000E+0003  5.42100000000000E+0003
 4.30480000000000E+0003  5.94900000000000E+0003
 4.30490000000000E+0003  6.70700000000000E+0003
 4.30500000000000E+0003  5.37900000000000E+0003
 4.30510000000000E+0003  5.92900000000000E+0003
 4.30520000000000E+0003  5.79300000000000E+0003
 4.30530000000000E+0003  5.74500000000000E+0003
 4.30540000000000E+0003  6.69800000000000E+0003
 4.30550000000000E+0003  6.09200000000000E+0003
 4.30560000000000E+0003  5.84900000000000E+0003
 4.30570000000000E+0003  6.05600000000000E+0003
 4.30580000000000E+0003  5.83200000000000E+0003
 4.30590000000000E+0003  6.60100000000000E+0003
 4.30600000000000E+0003  6.29300000000000E+0003
 4.30610000000000E+0003  6.56500000000000E+0003
 4.30620000000000E+0003  6.43500000000000E+0003
 4.30630000000000E+0003  6.48700000000000E+0003
 4.30640000000000E+0003  6.46100000000000E+0003
 4.30650000000000E+0003  6.48300000000000E+0003
 4.30660000000000E+0003  6.40300000000000E+0003
 4.30670000000000E+0003  7.59100000000000E+0003
 4.30680000000000E+0003  6.52000000000000E+0003
 4.30690000000000E+0003  7.10000000000000E+0003
 4.30700000000000E+0003  6.32400000000000E+0003
 4.30710000000000E+0003  6.10700000000000E+0003
 4.30720000000000E+0003  7.37400000000000E+0003
 4.30730000000000E+0003  7.23600000000000E+0003
 4.30740000000000E+0003  6.74600000000000E+0003
 4.30750000000000E+0003  7.13400000000000E+0003
 4.30760000000000E+0003  7.32700000000000E+0003
 4.30770000000000E+0003  7.28600000000000E+0003
 4.30780000000000E+0003  6.89000000000000E+0003
 4.30790000000000E+0003  7.53200000000000E+0003
 4.30800000000000E+0003  7.03200000000000E+0003
 4.30810000000000E+0003  7.12700000000000E+0003
 4.30820000000000E+0003  6.94200000000000E+0003
 4.30830000000000E+0003  7.87400000000000E+0003
 4.30840000000000E+0003  6.63400000000000E+0003
 4.30850000000000E+0003  7.99700000000000E+0003
 4.30860000000000E+0003  7.20900000000000E+0003
 4.30870000000000E+0003  7.82600000000000E+0003
 4.30880000000000E+0003  7.87000000000000E+0003
 4.30890000000000E+0003  8.13400000000000E+0003
 4.30900000000000E+0003  8.69100000000000E+0003
 4.30910000000000E+0003  8.61500000000000E+0003
 4.30920000000000E+0003  8.44300000000000E+0003
 4.30930000000000E+0003  8.03000000000000E+0003
 4.30940000000000E+0003  8.33700000000000E+0003
 4.30950000000000E+0003  7.67900000000000E+0003
 4.30960000000000E+0003  8.68700000000000E+0003
 4.30970000000000E+0003  8.98800000000000E+0003
 4.30980000000000E+0003  9.83500000000000E+0003
 4.30990000000000E+0003  1.06700000000000E+0004
 4.31000000000000E+0003  9.85700000000000E+0003
 4.31010000000000E+0003  1.07070000000000E+0004
 4.31020000000000E+0003  1.17100000000000E+0004
 4.31030000000000E+0003  1.09080000000000E+0004
 4.31040000000000E+0003  1.27340000000000E+0004
 4.31050000000000E+0003  1.27530000000000E+0004
 4.31060000000000E+0003  1.36740000000000E+0004
 4.31070000000000E+0003  1.43030000000000E+0004
 4.31080000000000E+0003  1.51340000000000E+0004
 4.31090000000000E+0003  1.56720000000000E+0004
 4.31100000000000E+0003  1.70140000000000E+0004
 4.31110000000000E+0003  1.86070000000000E+0004
 4.31120000000000E+0003  2.22550000000000E+0004
 4.31130000000000E+0003  2.31400000000000E+0004
 4.31140000000000E+0003  2.71740000000000E+0004
 4.31150000000000E+0003  3.00290000000000E+0004
 4.31160000000000E+0003  3.53230000000000E+0004
 4.31170000000000E+0003  3.94660000000000E+0004
 4.31180000000000E+0003  4.54850000000000E+0004
 4.31190000000000E+0003  4.65400000000000E+0004
 4.31200000000000E+0003  4.29340000000000E+0004
 4.31210000000000E+0003  4.30630000000000E+0004
 4.31220000000000E+0003  4.07310000000000E+0004
 4.31230000000000E+0003  3.84960000000000E+0004
 4.31240000000000E+0003  3.40620000000000E+0004
 4.31250000000000E+0003  3.00150000000000E+0004
 4.31260000000000E+0003  2.82340000000000E+0004
 4.31270000000000E+0003  2.21520000000000E+0004
 4.31280000000000E+0003  1.86000000000000E+0004
 4.31290000000000E+0003  1.54510000000000E+0004
 4.31300000000000E+0003  1.28990000000000E+0004
 4.31310000000000E+0003  9.60300000000000E+0003
 4.31320000000000E+0003  8.15400000000000E+0003
 4.31330000000000E+0003  6.65600000000000E+0003
 4.31340000000000E+0003  5.56500000000000E+0003
 4.31350000000000E+0003  5.40500000000000E+0003
 4.31360000000000E+0003  4.49300000000000E+0003
 4.31370000000000E+0003  3.81300000000000E+0003
 4.31380000000000E+0003  3.89600000000000E+0003
 4.31390000000000E+0003  3.89300000000000E+0003
 4.31400000000000E+0003  3.56900000000000E+0003
 4.31410000000000E+0003  3.02800000000000E+0003
 4.31420000000000E+0003  4.01200000000000E+0003
 4.31430000000000E+0003  3.65700000000000E+0003
 4.31440000000000E+0003  4.06000000000000E+0003
 4.31450000000000E+0003  4.22500000000000E+0003
 4.31460000000000E+0003  3.95000000000000E+0003
 4.31470000000000E+0003  3.68600000000000E+0003
 4.31480000000000E+0003  3.36600000000000E+0003
 4.31490000000000E+0003  3.69100000000000E+0003
 4.31500000000000E+0003  3.37900000000000E+0003
 4.31510000000000E+0003  3.97400000000000E+0003
 4.31520000000000E+0003  3.04300000000000E+0003
 4.31530000000000E+0003  3.54900000000000E+0003
 4.31540000000000E+0003  3.63800000000000E+0003
 4.31550000000000E+0003  4.20200000000000E+0003
 4.31560000000000E+0003  3.69200000000000E+0003
 4.31570000000000E+0003  3.89600000000000E+0003
 4.31580000000000E+0003  4.14600000000000E+0003
 4.31590000000000E+0003  3.48200000000000E+0003
 4.31600000000000E+0003  3.41300000000000E+0003

[Region 2]
Region Name=Pd3d_4600
Dimension 1 name=Kinetic Energy [eV]
Dimension 1 size=51
Dimension 1 scale=4258.5 4258.6 4258.7 4258.8 4258.9 4259 4259.1 4259.2 4259.3 4259.4 4259.5 4259.6 4259.7 4259.8 4259.9 4260 4260.1 4260.2 4260.3 4260.4 4260.5 4260.6 4260.7 4260.8 4260.9 4261 4261.1 4261.2 4261.3 4261.4 4261.5 4261.6 4261.7 4261.8 4261.9 4262 4262.1 4262.2 4262.3 4262.4 4262.5 4262.6 4262.7 4262.8 4262.9 4263 4263.1 4263.2 4263.3 4263.4 4263.5

[Info 2]
Region Name=Pd3d_4600
Lens Mode=T_HiPPHAXPES
Pass Energy=100
Number of Sweeps=2
Excitation Energy=3.10021844987699E-317
Energy Scale=Kinetic
Acquisition Mode=Swept
Energy Unit=Kinetic
Center Energy=4261
Low Energy=4258.5
High Energy=4263.5
Energy Step=0.1
Step Time=243
Detector First X-Channel=1
Detector Last X-Channel=512
Detector First Y-Channel=1
Detector Last Y-Channel=460
Number of Slices=1
File=D:\Data\2019_Blomberg_Pd100\Pd100_0077.pxt,.ibw,.txt
Sequence=D:\Data\2018_11_26_Copper\Sequence_files_Copper.seq
Spectrum Name=Pd100_Pd3d_4600
Instrument=HiPP-2 10kV-9862
Location=
User=
Sample=Pd100
Comments=Pd100 CO oxidation;
Date=2019-03-24
Time=09:59:36
Time per Spectrum Channel=41.796
DetectorMode=ADC
[Run Mode Information 2]
Name=Add Dimension


[Data 2]
 4.25850000000000E+0003  7.50670000000000E+0004
 4.25860000000000E+0003  7.46000000000000E+0004
 4.25870000000000E+0003  7.68810000000000E+0004
 4.25880000000000E+0003  7.86030000000000E+0004
 4.25890000000000E+0003  8.18890000000000E+0004
 4.25900000000000E+0003  8.34710000000000E+0004
 4.25910000000000E+0003  8.47240000000000E+0004
 4.25920000000000E+0003  8.75520000000000E+0004
 4.25930000000000E+0003  9.07190000000000E+0004
 4.25940000000000E+0003  9.36560000000000E+0004
 4.25950000000000E+0003  9.97580000000000E+0004
 4.25960000000000E+0003  1.07129000000000E+0005
 4.25970000000000E+0003  1.13907000000000E+0005
 4.25980000000000E+0003  1.18447000000000E+0005
 4.25990000000000E+0003  1.29759000000000E+0005
 4.26000000000000E+0003  1.44068000000000E+0005
 4.26010000000000E+0003  1.60868000000000E+0005
 4.26020000000000E+0003  1.73561000000000E+0005
 4.26030000000000E+0003  1.98617000000000E+0005
 4.26040000000000E+0003  2.31721000000000E+0005
 4.26050000000000E+0003  2.72400000000000E+0005
 4.26060000000000E+0003  3.27154000000000E+0005
 4.26070000000000E+0003  3.92726000000000E+0005
 4.26080000000000E+0003  4.70844000000000E+0005
 4.26090000000000E+0003  5.61171000000000E+0005
 4.26100000000000E+0003  6.17198000000000E+0005
 4.26110000000000E+0003  6.57140000000000E+0005
 4.26120000000000E+0003  6.94810000000000E+0005
 4.26130000000000E+0003  7.22397000000000E+0005
 4.26140000000000E+0003  7.83919000000000E+0005
 4.26150000000000E+0003  8.40345000000000E+0005
 4.26160000000000E+0003  8.07341000000000E+0005
 4.26170000000000E+0003  6.41120000000000E+0005
 4.26180000000000E+0003  4.04132000000000E+0005
 4.26190000000000E+0003  2.31322000000000E+0005
 4.26200000000000E+0003  1.24493000000000E+0005
 4.26210000000000E+0003  7.68590000000000E+0004
 4.26220000000000E+0003  5.34420000000000E+0004
 4.26230000000000E+0003  3.97150000000000E+0004
 4.26240000000000E+0003  3.05520000000000E+0004
 4.26250000000000E+0003  2.58690000000000E+0004
 4.26260000000000E+0003  2.12520000000000E+0004
 4.26270000000000E+0003  1.94840000000000E+0004
 4.26280000000000E+0003  1.67210000000000E+0004
 4.26290000000000E+0003  1.70440000000000E+0004
 4.26300000000000E+0003  1.30720000000000E+0004
 4.26310000000000E+0003  1.24410000000000E+0004
 4.26320000000000E+0003  1.24300000000000E+0004
 4.26330000000000E+0003  1.07590000000000E+0004
 4.26340000000000E+0003  9.46100000000000E+0003
 4.26350000000000E+0003  9.91300000000000E+0003

