[Info]
Number of Regions=0001
Version=1.3.1

[Region 1]
Region Name=O1_hv=3700
Dimension 1 name=Kinetic Energy [eV]
Dimension 1 size=1001
Dimension 1 scale=3150 3150.06 3150.12 3150.18 3150.24 3150.3 3150.36 3150.42 3150.48 3150.54 3150.6 3150.66 3150.72 3150.78 3150.84 3150.9 3150.96 3151.02 3151.08 3151.14 3151.2 3151.26 3151.32 3151.38 3151.44 3151.5 3151.56 3151.62 3151.68 3151.74 3151.8 3151.86 3151.92 3151.98 3152.04 3152.1 3152.16 3152.22 3152.28 3152.34 3152.4 3152.46 3152.52 3152.58 3152.64 3152.7 3152.76 3152.82 3152.88 3152.94 3153 3153.06 3153.12 3153.18 3153.24 3153.3 3153.36 3153.42 3153.48 3153.54 3153.6 3153.66 3153.72 3153.78 3153.84 3153.9 3153.96 3154.02 3154.08 3154.14 3154.2 3154.26 3154.32 3154.38 3154.44 3154.5 3154.56 3154.62 3154.68 3154.74 3154.8 3154.86 3154.92 3154.98 3155.04 3155.1 3155.16 3155.22 3155.28 3155.34 3155.4 3155.46 3155.52 3155.58 3155.64 3155.7 3155.76 3155.82 3155.88 3155.94 3156 3156.06 3156.12 3156.18 3156.24 3156.3 3156.36 3156.42 3156.48 3156.54 3156.6 3156.66 3156.72 3156.78 3156.84 3156.9 3156.96 3157.02 3157.08 3157.14 3157.2 3157.26 3157.32 3157.38 3157.44 3157.5 3157.56 3157.62 3157.68 3157.74 3157.8 3157.86 3157.92 3157.98 3158.04 3158.1 3158.16 3158.22 3158.28 3158.34 3158.4 3158.46 3158.52 3158.58 3158.64 3158.7 3158.76 3158.82 3158.88 3158.94 3159 3159.06 3159.12 3159.18 3159.24 3159.3 3159.36 3159.42 3159.48 3159.54 3159.6 3159.66 3159.72 3159.78 3159.84 3159.9 3159.96 3160.02 3160.08 3160.14 3160.2 3160.26 3160.32 3160.38 3160.44 3160.5 3160.56 3160.62 3160.68 3160.74 3160.8 3160.86 3160.92 3160.98 3161.04 3161.1 3161.16 3161.22 3161.28 3161.34 3161.4 3161.46 3161.52 3161.58 3161.64 3161.7 3161.76 3161.82 3161.88 3161.94 3162 3162.06 3162.12 3162.18 3162.24 3162.3 3162.36 3162.42 3162.48 3162.54 3162.6 3162.66 3162.72 3162.78 3162.84 3162.9 3162.96 3163.02 3163.08 3163.14 3163.2 3163.26 3163.32 3163.38 3163.44 3163.5 3163.56 3163.62 3163.68 3163.74 3163.8 3163.86 3163.92 3163.98 3164.04 3164.1 3164.16 3164.22 3164.28 3164.34 3164.4 3164.46 3164.52 3164.58 3164.64 3164.7 3164.76 3164.82 3164.88 3164.94 3165 3165.06 3165.12 3165.18 3165.24 3165.3 3165.36 3165.42 3165.48 3165.54 3165.6 3165.66 3165.72 3165.78 3165.84 3165.9 3165.96 3166.02 3166.08 3166.14 3166.2 3166.26 3166.32 3166.38 3166.44 3166.5 3166.56 3166.62 3166.68 3166.74 3166.8 3166.86 3166.92 3166.98 3167.04 3167.1 3167.16 3167.22 3167.28 3167.34 3167.4 3167.46 3167.52 3167.58 3167.64 3167.7 3167.76 3167.82 3167.88 3167.94 3168 3168.06 3168.12 3168.18 3168.24 3168.3 3168.36 3168.42 3168.48 3168.54 3168.6 3168.66 3168.72 3168.78 3168.84 3168.9 3168.96 3169.02 3169.08 3169.14 3169.2 3169.26 3169.32 3169.38 3169.44 3169.5 3169.56 3169.62 3169.68 3169.74 3169.8 3169.86 3169.92 3169.98 3170.04 3170.1 3170.16 3170.22 3170.28 3170.34 3170.4 3170.46 3170.52 3170.58 3170.64 3170.7 3170.76 3170.82 3170.88 3170.94 3171 3171.06 3171.12 3171.18 3171.24 3171.3 3171.36 3171.42 3171.48 3171.54 3171.6 3171.66 3171.72 3171.78 3171.84 3171.9 3171.96 3172.02 3172.08 3172.14 3172.2 3172.26 3172.32 3172.38 3172.44 3172.5 3172.56 3172.62 3172.68 3172.74 3172.8 3172.86 3172.92 3172.98 3173.04 3173.1 3173.16 3173.22 3173.28 3173.34 3173.4 3173.46 3173.52 3173.58 3173.64 3173.7 3173.76 3173.82 3173.88 3173.94 3174 3174.06 3174.12 3174.18 3174.24 3174.3 3174.36 3174.42 3174.48 3174.54 3174.6 3174.66 3174.72 3174.78 3174.84 3174.9 3174.96 3175.02 3175.08 3175.14 3175.2 3175.26 3175.32 3175.38 3175.44 3175.5 3175.56 3175.62 3175.68 3175.74 3175.8 3175.86 3175.92 3175.98 3176.04 3176.1 3176.16 3176.22 3176.28 3176.34 3176.4 3176.46 3176.52 3176.58 3176.64 3176.7 3176.76 3176.82 3176.88 3176.94 3177 3177.06 3177.12 3177.18 3177.24 3177.3 3177.36 3177.42 3177.48 3177.54 3177.6 3177.66 3177.72 3177.78 3177.84 3177.9 3177.96 3178.02 3178.08 3178.14 3178.2 3178.26 3178.32 3178.38 3178.44 3178.5 3178.56 3178.62 3178.68 3178.74 3178.8 3178.86 3178.92 3178.98 3179.04 3179.1 3179.16 3179.22 3179.28 3179.34 3179.4 3179.46 3179.52 3179.58 3179.64 3179.7 3179.76 3179.82 3179.88 3179.94 3180 3180.06 3180.12 3180.18 3180.24 3180.3 3180.36 3180.42 3180.48 3180.54 3180.6 3180.66 3180.72 3180.78 3180.84 3180.9 3180.96 3181.02 3181.08 3181.14 3181.2 3181.26 3181.32 3181.38 3181.44 3181.5 3181.56 3181.62 3181.68 3181.74 3181.8 3181.86 3181.92 3181.98 3182.04 3182.1 3182.16 3182.22 3182.28 3182.34 3182.4 3182.46 3182.52 3182.58 3182.64 3182.7 3182.76 3182.82 3182.88 3182.94 3183 3183.06 3183.12 3183.18 3183.24 3183.3 3183.36 3183.42 3183.48 3183.54 3183.6 3183.66 3183.72 3183.78 3183.84 3183.9 3183.96 3184.02 3184.08 3184.14 3184.2 3184.26 3184.32 3184.38 3184.44 3184.5 3184.56 3184.62 3184.68 3184.74 3184.8 3184.86 3184.92 3184.98 3185.04 3185.1 3185.16 3185.22 3185.28 3185.34 3185.4 3185.46 3185.52 3185.58 3185.64 3185.7 3185.76 3185.82 3185.88 3185.94 3186 3186.06 3186.12 3186.18 3186.24 3186.3 3186.36 3186.42 3186.48 3186.54 3186.6 3186.66 3186.72 3186.78 3186.84 3186.9 3186.96 3187.02 3187.08 3187.14 3187.2 3187.26 3187.32 3187.38 3187.44 3187.5 3187.56 3187.62 3187.68 3187.74 3187.8 3187.86 3187.92 3187.98 3188.04 3188.1 3188.16 3188.22 3188.28 3188.34 3188.4 3188.46 3188.52 3188.58 3188.64 3188.7 3188.76 3188.82 3188.88 3188.94 3189 3189.06 3189.12 3189.18 3189.24 3189.3 3189.36 3189.42 3189.48 3189.54 3189.6 3189.66 3189.72 3189.78 3189.84 3189.9 3189.96 3190.02 3190.08 3190.14 3190.2 3190.26 3190.32 3190.38 3190.44 3190.5 3190.56 3190.62 3190.68 3190.74 3190.8 3190.86 3190.92 3190.98 3191.04 3191.1 3191.16 3191.22 3191.28 3191.34 3191.4 3191.46 3191.52 3191.58 3191.64 3191.7 3191.76 3191.82 3191.88 3191.94 3192 3192.06 3192.12 3192.18 3192.24 3192.3 3192.36 3192.42 3192.48 3192.54 3192.6 3192.66 3192.72 3192.78 3192.84 3192.9 3192.96 3193.02 3193.08 3193.14 3193.2 3193.26 3193.32 3193.38 3193.44 3193.5 3193.56 3193.62 3193.68 3193.74 3193.8 3193.86 3193.92 3193.98 3194.04 3194.1 3194.16 3194.22 3194.28 3194.34 3194.4 3194.46 3194.52 3194.58 3194.64 3194.7 3194.76 3194.82 3194.88 3194.94 3195 3195.06 3195.12 3195.18 3195.24 3195.3 3195.36 3195.42 3195.48 3195.54 3195.6 3195.66 3195.72 3195.78 3195.84 3195.9 3195.96 3196.02 3196.08 3196.14 3196.2 3196.26 3196.32 3196.38 3196.44 3196.5 3196.56 3196.62 3196.68 3196.74 3196.8 3196.86 3196.92 3196.98 3197.04 3197.1 3197.16 3197.22 3197.28 3197.34 3197.4 3197.46 3197.52 3197.58 3197.64 3197.7 3197.76 3197.82 3197.88 3197.94 3198 3198.06 3198.12 3198.18 3198.24 3198.3 3198.36 3198.42 3198.48 3198.54 3198.6 3198.66 3198.72 3198.78 3198.84 3198.9 3198.96 3199.02 3199.08 3199.14 3199.2 3199.26 3199.32 3199.38 3199.44 3199.5 3199.56 3199.62 3199.68 3199.74 3199.8 3199.86 3199.92 3199.98 3200.04 3200.1 3200.16 3200.22 3200.28 3200.34 3200.4 3200.46 3200.52 3200.58 3200.64 3200.7 3200.76 3200.82 3200.88 3200.94 3201 3201.06 3201.12 3201.18 3201.24 3201.3 3201.36 3201.42 3201.48 3201.54 3201.6 3201.66 3201.72 3201.78 3201.84 3201.9 3201.96 3202.02 3202.08 3202.14 3202.2 3202.26 3202.32 3202.38 3202.44 3202.5 3202.56 3202.62 3202.68 3202.74 3202.8 3202.86 3202.92 3202.98 3203.04 3203.1 3203.16 3203.22 3203.28 3203.34 3203.4 3203.46 3203.52 3203.58 3203.64 3203.7 3203.76 3203.82 3203.88 3203.94 3204 3204.06 3204.12 3204.18 3204.24 3204.3 3204.36 3204.42 3204.48 3204.54 3204.6 3204.66 3204.72 3204.78 3204.84 3204.9 3204.96 3205.02 3205.08 3205.14 3205.2 3205.26 3205.32 3205.38 3205.44 3205.5 3205.56 3205.62 3205.68 3205.74 3205.8 3205.86 3205.92 3205.98 3206.04 3206.1 3206.16 3206.22 3206.28 3206.34 3206.4 3206.46 3206.52 3206.58 3206.64 3206.7 3206.76 3206.82 3206.88 3206.94 3207 3207.06 3207.12 3207.18 3207.24 3207.3 3207.36 3207.42 3207.48 3207.54 3207.6 3207.66 3207.72 3207.78 3207.84 3207.9 3207.96 3208.02 3208.08 3208.14 3208.2 3208.26 3208.32 3208.38 3208.44 3208.5 3208.56 3208.62 3208.68 3208.74 3208.8 3208.86 3208.92 3208.98 3209.04 3209.1 3209.16 3209.22 3209.28 3209.34 3209.4 3209.46 3209.52 3209.58 3209.64 3209.7 3209.76 3209.82 3209.88 3209.94 3210

[Info 1]
Region Name=O1_hv=3700
Lens Mode=T_HiPPHAXPES
Pass Energy=100
Number of Sweeps=21
Excitation Energy=3.10021844987699E-317
Energy Scale=Kinetic
Acquisition Mode=Swept
Energy Unit=Kinetic
Center Energy=3180
Low Energy=3150
High Energy=3210
Energy Step=0.06
Step Time=14
Detector First X-Channel=76
Detector Last X-Channel=512
Detector First Y-Channel=33
Detector Last Y-Channel=460
Number of Slices=1
File=D:\Data\20180328\0073.pxt,.ibw,.txt
Sequence=D:\SES_1.7.2_Win64_Package\SES_1.7.2_Win64\Sequences\factory.seq
Spectrum Name=O1_hv=3700
Instrument=HiPP-2 10kV-9862
Location=SU
User=POLARIS
Sample=Rh 111
Comments=Pass energy 200;Slit 700;30 um front cone;
Date=2018-04-01
Time=01:55:03
Time per Spectrum Channel=35.868
DetectorMode=ADC
[Run Mode Information 1]



[Data 1]
 3.15000000000000E+0003  2.69930000000000E+0004
 3.15006000000000E+0003  2.58700000000000E+0004
 3.15012000000000E+0003  2.56460000000000E+0004
 3.15018000000000E+0003  2.68450000000000E+0004
 3.15024000000000E+0003  2.64270000000000E+0004
 3.15030000000000E+0003  2.61760000000000E+0004
 3.15036000000000E+0003  2.66420000000000E+0004
 3.15042000000000E+0003  2.62990000000000E+0004
 3.15048000000000E+0003  2.65500000000000E+0004
 3.15054000000000E+0003  2.49330000000000E+0004
 3.15060000000000E+0003  2.50690000000000E+0004
 3.15066000000000E+0003  2.58130000000000E+0004
 3.15072000000000E+0003  2.51210000000000E+0004
 3.15078000000000E+0003  2.59020000000000E+0004
 3.15084000000000E+0003  2.58490000000000E+0004
 3.15090000000000E+0003  2.63300000000000E+0004
 3.15096000000000E+0003  2.54640000000000E+0004
 3.15102000000000E+0003  2.62810000000000E+0004
 3.15108000000000E+0003  2.55550000000000E+0004
 3.15114000000000E+0003  2.44300000000000E+0004
 3.15120000000000E+0003  2.69080000000000E+0004
 3.15126000000000E+0003  2.53020000000000E+0004
 3.15132000000000E+0003  2.51790000000000E+0004
 3.15138000000000E+0003  2.54390000000000E+0004
 3.15144000000000E+0003  2.49990000000000E+0004
 3.15150000000000E+0003  2.51940000000000E+0004
 3.15156000000000E+0003  2.56080000000000E+0004
 3.15162000000000E+0003  2.57250000000000E+0004
 3.15168000000000E+0003  2.38650000000000E+0004
 3.15174000000000E+0003  2.53950000000000E+0004
 3.15180000000000E+0003  2.37710000000000E+0004
 3.15186000000000E+0003  2.50600000000000E+0004
 3.15192000000000E+0003  2.58410000000000E+0004
 3.15198000000000E+0003  2.57550000000000E+0004
 3.15204000000000E+0003  2.58460000000000E+0004
 3.15210000000000E+0003  2.55670000000000E+0004
 3.15216000000000E+0003  2.60810000000000E+0004
 3.15222000000000E+0003  2.56960000000000E+0004
 3.15228000000000E+0003  2.53130000000000E+0004
 3.15234000000000E+0003  2.64420000000000E+0004
 3.15240000000000E+0003  2.61570000000000E+0004
 3.15246000000000E+0003  2.41870000000000E+0004
 3.15252000000000E+0003  2.55000000000000E+0004
 3.15258000000000E+0003  2.64500000000000E+0004
 3.15264000000000E+0003  2.66110000000000E+0004
 3.15270000000000E+0003  2.56130000000000E+0004
 3.15276000000000E+0003  2.63330000000000E+0004
 3.15282000000000E+0003  2.58040000000000E+0004
 3.15288000000000E+0003  2.53030000000000E+0004
 3.15294000000000E+0003  2.49540000000000E+0004
 3.15300000000000E+0003  2.50210000000000E+0004
 3.15306000000000E+0003  2.58050000000000E+0004
 3.15312000000000E+0003  2.59960000000000E+0004
 3.15318000000000E+0003  2.50290000000000E+0004
 3.15324000000000E+0003  2.43140000000000E+0004
 3.15330000000000E+0003  2.34610000000000E+0004
 3.15336000000000E+0003  2.52450000000000E+0004
 3.15342000000000E+0003  2.52280000000000E+0004
 3.15348000000000E+0003  2.47580000000000E+0004
 3.15354000000000E+0003  2.56670000000000E+0004
 3.15360000000000E+0003  2.42180000000000E+0004
 3.15366000000000E+0003  2.46370000000000E+0004
 3.15372000000000E+0003  2.61340000000000E+0004
 3.15378000000000E+0003  2.59250000000000E+0004
 3.15384000000000E+0003  2.38250000000000E+0004
 3.15390000000000E+0003  2.41330000000000E+0004
 3.15396000000000E+0003  2.50470000000000E+0004
 3.15402000000000E+0003  2.54860000000000E+0004
 3.15408000000000E+0003  2.56860000000000E+0004
 3.15414000000000E+0003  2.57600000000000E+0004
 3.15420000000000E+0003  2.43840000000000E+0004
 3.15426000000000E+0003  2.40740000000000E+0004
 3.15432000000000E+0003  2.57530000000000E+0004
 3.15438000000000E+0003  2.48080000000000E+0004
 3.15444000000000E+0003  2.51190000000000E+0004
 3.15450000000000E+0003  2.43420000000000E+0004
 3.15456000000000E+0003  2.51980000000000E+0004
 3.15462000000000E+0003  2.51180000000000E+0004
 3.15468000000000E+0003  2.46750000000000E+0004
 3.15474000000000E+0003  2.68120000000000E+0004
 3.15480000000000E+0003  2.61000000000000E+0004
 3.15486000000000E+0003  2.54690000000000E+0004
 3.15492000000000E+0003  2.48020000000000E+0004
 3.15498000000000E+0003  2.40380000000000E+0004
 3.15504000000000E+0003  2.44080000000000E+0004
 3.15510000000000E+0003  2.55890000000000E+0004
 3.15516000000000E+0003  2.56510000000000E+0004
 3.15522000000000E+0003  2.74070000000000E+0004
 3.15528000000000E+0003  2.63860000000000E+0004
 3.15534000000000E+0003  2.55980000000000E+0004
 3.15540000000000E+0003  2.49290000000000E+0004
 3.15546000000000E+0003  2.62050000000000E+0004
 3.15552000000000E+0003  2.65760000000000E+0004
 3.15558000000000E+0003  2.60290000000000E+0004
 3.15564000000000E+0003  2.54480000000000E+0004
 3.15570000000000E+0003  2.41930000000000E+0004
 3.15576000000000E+0003  2.62250000000000E+0004
 3.15582000000000E+0003  2.49320000000000E+0004
 3.15588000000000E+0003  2.42020000000000E+0004
 3.15594000000000E+0003  2.56860000000000E+0004
 3.15600000000000E+0003  2.49400000000000E+0004
 3.15606000000000E+0003  2.61900000000000E+0004
 3.15612000000000E+0003  2.61640000000000E+0004
 3.15618000000000E+0003  2.42730000000000E+0004
 3.15624000000000E+0003  2.42540000000000E+0004
 3.15630000000000E+0003  2.52600000000000E+0004
 3.15636000000000E+0003  2.58740000000000E+0004
 3.15642000000000E+0003  2.57390000000000E+0004
 3.15648000000000E+0003  2.56170000000000E+0004
 3.15654000000000E+0003  2.37260000000000E+0004
 3.15660000000000E+0003  2.55890000000000E+0004
 3.15666000000000E+0003  2.56670000000000E+0004
 3.15672000000000E+0003  2.62160000000000E+0004
 3.15678000000000E+0003  2.45430000000000E+0004
 3.15684000000000E+0003  2.63200000000000E+0004
 3.15690000000000E+0003  2.45710000000000E+0004
 3.15696000000000E+0003  2.51140000000000E+0004
 3.15702000000000E+0003  2.52780000000000E+0004
 3.15708000000000E+0003  2.49990000000000E+0004
 3.15714000000000E+0003  2.61960000000000E+0004
 3.15720000000000E+0003  2.63780000000000E+0004
 3.15726000000000E+0003  2.52560000000000E+0004
 3.15732000000000E+0003  2.54660000000000E+0004
 3.15738000000000E+0003  2.49820000000000E+0004
 3.15744000000000E+0003  2.67810000000000E+0004
 3.15750000000000E+0003  2.40090000000000E+0004
 3.15756000000000E+0003  2.60850000000000E+0004
 3.15762000000000E+0003  2.64250000000000E+0004
 3.15768000000000E+0003  2.54180000000000E+0004
 3.15774000000000E+0003  2.59430000000000E+0004
 3.15780000000000E+0003  2.68550000000000E+0004
 3.15786000000000E+0003  2.56910000000000E+0004
 3.15792000000000E+0003  2.44290000000000E+0004
 3.15798000000000E+0003  2.54420000000000E+0004
 3.15804000000000E+0003  2.51690000000000E+0004
 3.15810000000000E+0003  2.51860000000000E+0004
 3.15816000000000E+0003  2.56650000000000E+0004
 3.15822000000000E+0003  2.60990000000000E+0004
 3.15828000000000E+0003  2.65980000000000E+0004
 3.15834000000000E+0003  2.70090000000000E+0004
 3.15840000000000E+0003  2.63480000000000E+0004
 3.15846000000000E+0003  2.47020000000000E+0004
 3.15852000000000E+0003  2.61000000000000E+0004
 3.15858000000000E+0003  2.61230000000000E+0004
 3.15864000000000E+0003  2.49160000000000E+0004
 3.15870000000000E+0003  2.60250000000000E+0004
 3.15876000000000E+0003  2.59530000000000E+0004
 3.15882000000000E+0003  2.53120000000000E+0004
 3.15888000000000E+0003  2.53550000000000E+0004
 3.15894000000000E+0003  2.59130000000000E+0004
 3.15900000000000E+0003  2.58320000000000E+0004
 3.15906000000000E+0003  2.66580000000000E+0004
 3.15912000000000E+0003  2.71290000000000E+0004
 3.15918000000000E+0003  2.54250000000000E+0004
 3.15924000000000E+0003  2.57910000000000E+0004
 3.15930000000000E+0003  2.66120000000000E+0004
 3.15936000000000E+0003  2.70010000000000E+0004
 3.15942000000000E+0003  2.65600000000000E+0004
 3.15948000000000E+0003  2.73210000000000E+0004
 3.15954000000000E+0003  2.52420000000000E+0004
 3.15960000000000E+0003  2.62610000000000E+0004
 3.15966000000000E+0003  2.74020000000000E+0004
 3.15972000000000E+0003  2.59760000000000E+0004
 3.15978000000000E+0003  2.55510000000000E+0004
 3.15984000000000E+0003  2.74400000000000E+0004
 3.15990000000000E+0003  2.68590000000000E+0004
 3.15996000000000E+0003  2.70450000000000E+0004
 3.16002000000000E+0003  2.47200000000000E+0004
 3.16008000000000E+0003  2.59500000000000E+0004
 3.16014000000000E+0003  2.55490000000000E+0004
 3.16020000000000E+0003  2.69970000000000E+0004
 3.16026000000000E+0003  2.69860000000000E+0004
 3.16032000000000E+0003  2.73800000000000E+0004
 3.16038000000000E+0003  2.77220000000000E+0004
 3.16044000000000E+0003  2.73750000000000E+0004
 3.16050000000000E+0003  2.90080000000000E+0004
 3.16056000000000E+0003  2.86630000000000E+0004
 3.16062000000000E+0003  2.73680000000000E+0004
 3.16068000000000E+0003  2.97950000000000E+0004
 3.16074000000000E+0003  2.77640000000000E+0004
 3.16080000000000E+0003  2.80470000000000E+0004
 3.16086000000000E+0003  2.97020000000000E+0004
 3.16092000000000E+0003  2.97010000000000E+0004
 3.16098000000000E+0003  3.17430000000000E+0004
 3.16104000000000E+0003  3.25490000000000E+0004
 3.16110000000000E+0003  3.04550000000000E+0004
 3.16116000000000E+0003  3.18440000000000E+0004
 3.16122000000000E+0003  3.29330000000000E+0004
 3.16128000000000E+0003  3.30560000000000E+0004
 3.16134000000000E+0003  3.56000000000000E+0004
 3.16140000000000E+0003  3.73390000000000E+0004
 3.16146000000000E+0003  3.51080000000000E+0004
 3.16152000000000E+0003  3.61620000000000E+0004
 3.16158000000000E+0003  3.96770000000000E+0004
 3.16164000000000E+0003  3.94390000000000E+0004
 3.16170000000000E+0003  4.15480000000000E+0004
 3.16176000000000E+0003  4.30690000000000E+0004
 3.16182000000000E+0003  4.40240000000000E+0004
 3.16188000000000E+0003  4.43120000000000E+0004
 3.16194000000000E+0003  4.51630000000000E+0004
 3.16200000000000E+0003  4.78900000000000E+0004
 3.16206000000000E+0003  4.94980000000000E+0004
 3.16212000000000E+0003  5.23920000000000E+0004
 3.16218000000000E+0003  5.34550000000000E+0004
 3.16224000000000E+0003  5.40630000000000E+0004
 3.16230000000000E+0003  5.51850000000000E+0004
 3.16236000000000E+0003  5.66680000000000E+0004
 3.16242000000000E+0003  5.64070000000000E+0004
 3.16248000000000E+0003  5.76910000000000E+0004
 3.16254000000000E+0003  5.81200000000000E+0004
 3.16260000000000E+0003  5.87670000000000E+0004
 3.16266000000000E+0003  6.04690000000000E+0004
 3.16272000000000E+0003  5.99750000000000E+0004
 3.16278000000000E+0003  5.91980000000000E+0004
 3.16284000000000E+0003  5.70560000000000E+0004
 3.16290000000000E+0003  5.64100000000000E+0004
 3.16296000000000E+0003  5.75070000000000E+0004
 3.16302000000000E+0003  5.61070000000000E+0004
 3.16308000000000E+0003  5.35420000000000E+0004
 3.16314000000000E+0003  5.53670000000000E+0004
 3.16320000000000E+0003  5.34790000000000E+0004
 3.16326000000000E+0003  5.21910000000000E+0004
 3.16332000000000E+0003  5.16860000000000E+0004
 3.16338000000000E+0003  5.15380000000000E+0004
 3.16344000000000E+0003  4.99890000000000E+0004
 3.16350000000000E+0003  4.56940000000000E+0004
 3.16356000000000E+0003  4.54820000000000E+0004
 3.16362000000000E+0003  4.46160000000000E+0004
 3.16368000000000E+0003  4.38940000000000E+0004
 3.16374000000000E+0003  4.23710000000000E+0004
 3.16380000000000E+0003  3.99390000000000E+0004
 3.16386000000000E+0003  4.05970000000000E+0004
 3.16392000000000E+0003  3.98370000000000E+0004
 3.16398000000000E+0003  4.04820000000000E+0004
 3.16404000000000E+0003  3.74640000000000E+0004
 3.16410000000000E+0003  3.78260000000000E+0004
 3.16416000000000E+0003  3.67580000000000E+0004
 3.16422000000000E+0003  3.37720000000000E+0004
 3.16428000000000E+0003  3.46760000000000E+0004
 3.16434000000000E+0003  3.36320000000000E+0004
 3.16440000000000E+0003  3.18150000000000E+0004
 3.16446000000000E+0003  3.29910000000000E+0004
 3.16452000000000E+0003  3.30160000000000E+0004
 3.16458000000000E+0003  3.22060000000000E+0004
 3.16464000000000E+0003  3.14720000000000E+0004
 3.16470000000000E+0003  2.95890000000000E+0004
 3.16476000000000E+0003  3.03470000000000E+0004
 3.16482000000000E+0003  3.00910000000000E+0004
 3.16488000000000E+0003  2.88850000000000E+0004
 3.16494000000000E+0003  2.80960000000000E+0004
 3.16500000000000E+0003  2.87910000000000E+0004
 3.16506000000000E+0003  2.81050000000000E+0004
 3.16512000000000E+0003  2.98850000000000E+0004
 3.16518000000000E+0003  2.79200000000000E+0004
 3.16524000000000E+0003  2.73840000000000E+0004
 3.16530000000000E+0003  2.86260000000000E+0004
 3.16536000000000E+0003  2.63660000000000E+0004
 3.16542000000000E+0003  2.62100000000000E+0004
 3.16548000000000E+0003  2.79300000000000E+0004
 3.16554000000000E+0003  2.90600000000000E+0004
 3.16560000000000E+0003  2.82040000000000E+0004
 3.16566000000000E+0003  2.73340000000000E+0004
 3.16572000000000E+0003  2.60710000000000E+0004
 3.16578000000000E+0003  2.72490000000000E+0004
 3.16584000000000E+0003  2.74020000000000E+0004
 3.16590000000000E+0003  2.77960000000000E+0004
 3.16596000000000E+0003  2.79350000000000E+0004
 3.16602000000000E+0003  2.59650000000000E+0004
 3.16608000000000E+0003  2.72290000000000E+0004
 3.16614000000000E+0003  2.62260000000000E+0004
 3.16620000000000E+0003  2.80450000000000E+0004
 3.16626000000000E+0003  2.88430000000000E+0004
 3.16632000000000E+0003  2.58470000000000E+0004
 3.16638000000000E+0003  2.73020000000000E+0004
 3.16644000000000E+0003  2.56930000000000E+0004
 3.16650000000000E+0003  2.57680000000000E+0004
 3.16656000000000E+0003  2.59890000000000E+0004
 3.16662000000000E+0003  2.66730000000000E+0004
 3.16668000000000E+0003  2.83370000000000E+0004
 3.16674000000000E+0003  2.78280000000000E+0004
 3.16680000000000E+0003  2.53310000000000E+0004
 3.16686000000000E+0003  2.64310000000000E+0004
 3.16692000000000E+0003  2.81260000000000E+0004
 3.16698000000000E+0003  2.61210000000000E+0004
 3.16704000000000E+0003  2.72820000000000E+0004
 3.16710000000000E+0003  2.72900000000000E+0004
 3.16716000000000E+0003  2.66960000000000E+0004
 3.16722000000000E+0003  2.89510000000000E+0004
 3.16728000000000E+0003  2.93090000000000E+0004
 3.16734000000000E+0003  2.75250000000000E+0004
 3.16740000000000E+0003  2.56370000000000E+0004
 3.16746000000000E+0003  2.76470000000000E+0004
 3.16752000000000E+0003  2.73900000000000E+0004
 3.16758000000000E+0003  2.73530000000000E+0004
 3.16764000000000E+0003  2.88960000000000E+0004
 3.16770000000000E+0003  2.68500000000000E+0004
 3.16776000000000E+0003  2.68820000000000E+0004
 3.16782000000000E+0003  2.87550000000000E+0004
 3.16788000000000E+0003  2.88630000000000E+0004
 3.16794000000000E+0003  2.70110000000000E+0004
 3.16800000000000E+0003  2.80290000000000E+0004
 3.16806000000000E+0003  2.58340000000000E+0004
 3.16812000000000E+0003  2.63360000000000E+0004
 3.16818000000000E+0003  2.63270000000000E+0004
 3.16824000000000E+0003  2.65690000000000E+0004
 3.16830000000000E+0003  2.83730000000000E+0004
 3.16836000000000E+0003  2.64210000000000E+0004
 3.16842000000000E+0003  2.72570000000000E+0004
 3.16848000000000E+0003  2.83070000000000E+0004
 3.16854000000000E+0003  2.93570000000000E+0004
 3.16860000000000E+0003  2.73220000000000E+0004
 3.16866000000000E+0003  2.69000000000000E+0004
 3.16872000000000E+0003  2.79920000000000E+0004
 3.16878000000000E+0003  2.76680000000000E+0004
 3.16884000000000E+0003  2.76190000000000E+0004
 3.16890000000000E+0003  2.87180000000000E+0004
 3.16896000000000E+0003  2.77670000000000E+0004
 3.16902000000000E+0003  2.82180000000000E+0004
 3.16908000000000E+0003  2.77840000000000E+0004
 3.16914000000000E+0003  2.68640000000000E+0004
 3.16920000000000E+0003  2.72470000000000E+0004
 3.16926000000000E+0003  2.79690000000000E+0004
 3.16932000000000E+0003  2.81090000000000E+0004
 3.16938000000000E+0003  2.61920000000000E+0004
 3.16944000000000E+0003  2.74380000000000E+0004
 3.16950000000000E+0003  2.84640000000000E+0004
 3.16956000000000E+0003  2.76390000000000E+0004
 3.16962000000000E+0003  2.84800000000000E+0004
 3.16968000000000E+0003  2.64710000000000E+0004
 3.16974000000000E+0003  2.72630000000000E+0004
 3.16980000000000E+0003  2.92160000000000E+0004
 3.16986000000000E+0003  2.80120000000000E+0004
 3.16992000000000E+0003  2.74680000000000E+0004
 3.16998000000000E+0003  2.97120000000000E+0004
 3.17004000000000E+0003  2.74720000000000E+0004
 3.17010000000000E+0003  2.72320000000000E+0004
 3.17016000000000E+0003  2.74630000000000E+0004
 3.17022000000000E+0003  2.79140000000000E+0004
 3.17028000000000E+0003  2.88570000000000E+0004
 3.17034000000000E+0003  2.81770000000000E+0004
 3.17040000000000E+0003  2.82730000000000E+0004
 3.17046000000000E+0003  2.82730000000000E+0004
 3.17052000000000E+0003  2.94570000000000E+0004
 3.17058000000000E+0003  2.98670000000000E+0004
 3.17064000000000E+0003  3.03430000000000E+0004
 3.17070000000000E+0003  2.85990000000000E+0004
 3.17076000000000E+0003  2.96360000000000E+0004
 3.17082000000000E+0003  2.86140000000000E+0004
 3.17088000000000E+0003  2.90040000000000E+0004
 3.17094000000000E+0003  2.95260000000000E+0004
 3.17100000000000E+0003  2.87960000000000E+0004
 3.17106000000000E+0003  2.78630000000000E+0004
 3.17112000000000E+0003  2.95730000000000E+0004
 3.17118000000000E+0003  2.96840000000000E+0004
 3.17124000000000E+0003  3.03570000000000E+0004
 3.17130000000000E+0003  3.11940000000000E+0004
 3.17136000000000E+0003  2.94230000000000E+0004
 3.17142000000000E+0003  3.16260000000000E+0004
 3.17148000000000E+0003  3.13610000000000E+0004
 3.17154000000000E+0003  3.19580000000000E+0004
 3.17160000000000E+0003  3.16880000000000E+0004
 3.17166000000000E+0003  3.20890000000000E+0004
 3.17172000000000E+0003  3.07920000000000E+0004
 3.17178000000000E+0003  3.15160000000000E+0004
 3.17184000000000E+0003  3.16180000000000E+0004
 3.17190000000000E+0003  3.13150000000000E+0004
 3.17196000000000E+0003  3.31770000000000E+0004
 3.17202000000000E+0003  3.28390000000000E+0004
 3.17208000000000E+0003  3.11720000000000E+0004
 3.17214000000000E+0003  3.17640000000000E+0004
 3.17220000000000E+0003  3.33000000000000E+0004
 3.17226000000000E+0003  3.41190000000000E+0004
 3.17232000000000E+0003  3.25330000000000E+0004
 3.17238000000000E+0003  3.58030000000000E+0004
 3.17244000000000E+0003  3.43240000000000E+0004
 3.17250000000000E+0003  3.28630000000000E+0004
 3.17256000000000E+0003  3.45060000000000E+0004
 3.17262000000000E+0003  3.41460000000000E+0004
 3.17268000000000E+0003  3.66390000000000E+0004
 3.17274000000000E+0003  3.60490000000000E+0004
 3.17280000000000E+0003  3.61750000000000E+0004
 3.17286000000000E+0003  3.65510000000000E+0004
 3.17292000000000E+0003  3.66390000000000E+0004
 3.17298000000000E+0003  3.76850000000000E+0004
 3.17304000000000E+0003  3.68170000000000E+0004
 3.17310000000000E+0003  3.86480000000000E+0004
 3.17316000000000E+0003  3.91120000000000E+0004
 3.17322000000000E+0003  3.92590000000000E+0004
 3.17328000000000E+0003  3.97980000000000E+0004
 3.17334000000000E+0003  3.96030000000000E+0004
 3.17340000000000E+0003  4.10720000000000E+0004
 3.17346000000000E+0003  4.01340000000000E+0004
 3.17352000000000E+0003  4.15590000000000E+0004
 3.17358000000000E+0003  4.08160000000000E+0004
 3.17364000000000E+0003  4.23610000000000E+0004
 3.17370000000000E+0003  4.21210000000000E+0004
 3.17376000000000E+0003  4.28630000000000E+0004
 3.17382000000000E+0003  4.41650000000000E+0004
 3.17388000000000E+0003  4.34230000000000E+0004
 3.17394000000000E+0003  4.44120000000000E+0004
 3.17400000000000E+0003  4.49590000000000E+0004
 3.17406000000000E+0003  4.50210000000000E+0004
 3.17412000000000E+0003  4.40900000000000E+0004
 3.17418000000000E+0003  4.43210000000000E+0004
 3.17424000000000E+0003  4.62670000000000E+0004
 3.17430000000000E+0003  4.58300000000000E+0004
 3.17436000000000E+0003  4.44760000000000E+0004
 3.17442000000000E+0003  4.74560000000000E+0004
 3.17448000000000E+0003  4.66720000000000E+0004
 3.17454000000000E+0003  4.63280000000000E+0004
 3.17460000000000E+0003  4.41040000000000E+0004
 3.17466000000000E+0003  4.27820000000000E+0004
 3.17472000000000E+0003  4.16470000000000E+0004
 3.17478000000000E+0003  4.14000000000000E+0004
 3.17484000000000E+0003  3.99640000000000E+0004
 3.17490000000000E+0003  4.06890000000000E+0004
 3.17496000000000E+0003  3.89090000000000E+0004
 3.17502000000000E+0003  3.75290000000000E+0004
 3.17508000000000E+0003  3.81190000000000E+0004
 3.17514000000000E+0003  3.60400000000000E+0004
 3.17520000000000E+0003  3.67110000000000E+0004
 3.17526000000000E+0003  3.63370000000000E+0004
 3.17532000000000E+0003  3.71390000000000E+0004
 3.17538000000000E+0003  3.37260000000000E+0004
 3.17544000000000E+0003  3.36260000000000E+0004
 3.17550000000000E+0003  3.29520000000000E+0004
 3.17556000000000E+0003  3.29130000000000E+0004
 3.17562000000000E+0003  3.38150000000000E+0004
 3.17568000000000E+0003  3.20010000000000E+0004
 3.17574000000000E+0003  3.10540000000000E+0004
 3.17580000000000E+0003  3.20310000000000E+0004
 3.17586000000000E+0003  2.99510000000000E+0004
 3.17592000000000E+0003  2.82570000000000E+0004
 3.17598000000000E+0003  2.92540000000000E+0004
 3.17604000000000E+0003  2.94280000000000E+0004
 3.17610000000000E+0003  2.93240000000000E+0004
 3.17616000000000E+0003  2.81630000000000E+0004
 3.17622000000000E+0003  2.85930000000000E+0004
 3.17628000000000E+0003  2.78970000000000E+0004
 3.17634000000000E+0003  2.93280000000000E+0004
 3.17640000000000E+0003  2.65380000000000E+0004
 3.17646000000000E+0003  2.67180000000000E+0004
 3.17652000000000E+0003  2.75610000000000E+0004
 3.17658000000000E+0003  2.70430000000000E+0004
 3.17664000000000E+0003  2.57230000000000E+0004
 3.17670000000000E+0003  2.48870000000000E+0004
 3.17676000000000E+0003  2.58860000000000E+0004
 3.17682000000000E+0003  2.61720000000000E+0004
 3.17688000000000E+0003  2.56930000000000E+0004
 3.17694000000000E+0003  2.52850000000000E+0004
 3.17700000000000E+0003  2.63480000000000E+0004
 3.17706000000000E+0003  2.50550000000000E+0004
 3.17712000000000E+0003  2.41140000000000E+0004
 3.17718000000000E+0003  2.38840000000000E+0004
 3.17724000000000E+0003  2.34820000000000E+0004
 3.17730000000000E+0003  2.46710000000000E+0004
 3.17736000000000E+0003  2.47930000000000E+0004
 3.17742000000000E+0003  2.44580000000000E+0004
 3.17748000000000E+0003  2.41430000000000E+0004
 3.17754000000000E+0003  2.50440000000000E+0004
 3.17760000000000E+0003  2.33140000000000E+0004
 3.17766000000000E+0003  2.38370000000000E+0004
 3.17772000000000E+0003  2.34590000000000E+0004
 3.17778000000000E+0003  2.35030000000000E+0004
 3.17784000000000E+0003  2.32020000000000E+0004
 3.17790000000000E+0003  2.42300000000000E+0004
 3.17796000000000E+0003  2.26950000000000E+0004
 3.17802000000000E+0003  2.32420000000000E+0004
 3.17808000000000E+0003  2.30910000000000E+0004
 3.17814000000000E+0003  2.28750000000000E+0004
 3.17820000000000E+0003  2.15690000000000E+0004
 3.17826000000000E+0003  2.20060000000000E+0004
 3.17832000000000E+0003  2.22930000000000E+0004
 3.17838000000000E+0003  2.26940000000000E+0004
 3.17844000000000E+0003  2.15370000000000E+0004
 3.17850000000000E+0003  2.15650000000000E+0004
 3.17856000000000E+0003  2.34250000000000E+0004
 3.17862000000000E+0003  2.21030000000000E+0004
 3.17868000000000E+0003  2.13670000000000E+0004
 3.17874000000000E+0003  2.24600000000000E+0004
 3.17880000000000E+0003  2.23870000000000E+0004
 3.17886000000000E+0003  2.17390000000000E+0004
 3.17892000000000E+0003  2.06240000000000E+0004
 3.17898000000000E+0003  2.17680000000000E+0004
 3.17904000000000E+0003  2.16340000000000E+0004
 3.17910000000000E+0003  2.20030000000000E+0004
 3.17916000000000E+0003  2.09420000000000E+0004
 3.17922000000000E+0003  2.14200000000000E+0004
 3.17928000000000E+0003  2.21000000000000E+0004
 3.17934000000000E+0003  2.15180000000000E+0004
 3.17940000000000E+0003  2.19270000000000E+0004
 3.17946000000000E+0003  2.24800000000000E+0004
 3.17952000000000E+0003  2.20290000000000E+0004
 3.17958000000000E+0003  2.11120000000000E+0004
 3.17964000000000E+0003  1.99450000000000E+0004
 3.17970000000000E+0003  2.20270000000000E+0004
 3.17976000000000E+0003  2.15200000000000E+0004
 3.17982000000000E+0003  2.16100000000000E+0004
 3.17988000000000E+0003  2.09560000000000E+0004
 3.17994000000000E+0003  1.96210000000000E+0004
 3.18000000000000E+0003  2.01280000000000E+0004
 3.18006000000000E+0003  2.10580000000000E+0004
 3.18012000000000E+0003  2.21800000000000E+0004
 3.18018000000000E+0003  2.11860000000000E+0004
 3.18024000000000E+0003  2.08670000000000E+0004
 3.18030000000000E+0003  2.05660000000000E+0004
 3.18036000000000E+0003  2.12500000000000E+0004
 3.18042000000000E+0003  2.07250000000000E+0004
 3.18048000000000E+0003  2.14620000000000E+0004
 3.18054000000000E+0003  2.07800000000000E+0004
 3.18060000000000E+0003  2.09480000000000E+0004
 3.18066000000000E+0003  1.95210000000000E+0004
 3.18072000000000E+0003  2.04090000000000E+0004
 3.18078000000000E+0003  2.02450000000000E+0004
 3.18084000000000E+0003  2.03460000000000E+0004
 3.18090000000000E+0003  2.07220000000000E+0004
 3.18096000000000E+0003  1.98890000000000E+0004
 3.18102000000000E+0003  1.93730000000000E+0004
 3.18108000000000E+0003  2.10410000000000E+0004
 3.18114000000000E+0003  2.07030000000000E+0004
 3.18120000000000E+0003  2.03730000000000E+0004
 3.18126000000000E+0003  1.98780000000000E+0004
 3.18132000000000E+0003  1.87440000000000E+0004
 3.18138000000000E+0003  1.96950000000000E+0004
 3.18144000000000E+0003  1.97230000000000E+0004
 3.18150000000000E+0003  2.02100000000000E+0004
 3.18156000000000E+0003  1.93420000000000E+0004
 3.18162000000000E+0003  2.04620000000000E+0004
 3.18168000000000E+0003  2.01050000000000E+0004
 3.18174000000000E+0003  1.99860000000000E+0004
 3.18180000000000E+0003  2.09430000000000E+0004
 3.18186000000000E+0003  2.11560000000000E+0004
 3.18192000000000E+0003  1.86600000000000E+0004
 3.18198000000000E+0003  2.04280000000000E+0004
 3.18204000000000E+0003  2.08650000000000E+0004
 3.18210000000000E+0003  2.04020000000000E+0004
 3.18216000000000E+0003  2.08690000000000E+0004
 3.18222000000000E+0003  2.03490000000000E+0004
 3.18228000000000E+0003  2.05400000000000E+0004
 3.18234000000000E+0003  2.04420000000000E+0004
 3.18240000000000E+0003  2.05490000000000E+0004
 3.18246000000000E+0003  2.03340000000000E+0004
 3.18252000000000E+0003  2.04680000000000E+0004
 3.18258000000000E+0003  2.16290000000000E+0004
 3.18264000000000E+0003  1.93580000000000E+0004
 3.18270000000000E+0003  1.91630000000000E+0004
 3.18276000000000E+0003  1.96250000000000E+0004
 3.18282000000000E+0003  1.86680000000000E+0004
 3.18288000000000E+0003  1.99150000000000E+0004
 3.18294000000000E+0003  1.98250000000000E+0004
 3.18300000000000E+0003  1.90580000000000E+0004
 3.18306000000000E+0003  1.99960000000000E+0004
 3.18312000000000E+0003  2.07830000000000E+0004
 3.18318000000000E+0003  1.94160000000000E+0004
 3.18324000000000E+0003  2.00340000000000E+0004
 3.18330000000000E+0003  1.99170000000000E+0004
 3.18336000000000E+0003  2.03110000000000E+0004
 3.18342000000000E+0003  1.89460000000000E+0004
 3.18348000000000E+0003  2.01160000000000E+0004
 3.18354000000000E+0003  2.04130000000000E+0004
 3.18360000000000E+0003  1.93830000000000E+0004
 3.18366000000000E+0003  2.03550000000000E+0004
 3.18372000000000E+0003  2.00910000000000E+0004
 3.18378000000000E+0003  1.85120000000000E+0004
 3.18384000000000E+0003  2.04580000000000E+0004
 3.18390000000000E+0003  1.92910000000000E+0004
 3.18396000000000E+0003  1.93460000000000E+0004
 3.18402000000000E+0003  1.89900000000000E+0004
 3.18408000000000E+0003  1.95490000000000E+0004
 3.18414000000000E+0003  2.03390000000000E+0004
 3.18420000000000E+0003  2.00080000000000E+0004
 3.18426000000000E+0003  1.96200000000000E+0004
 3.18432000000000E+0003  1.86000000000000E+0004
 3.18438000000000E+0003  1.97010000000000E+0004
 3.18444000000000E+0003  2.01340000000000E+0004
 3.18450000000000E+0003  1.95520000000000E+0004
 3.18456000000000E+0003  1.91720000000000E+0004
 3.18462000000000E+0003  1.84530000000000E+0004
 3.18468000000000E+0003  1.90240000000000E+0004
 3.18474000000000E+0003  1.95740000000000E+0004
 3.18480000000000E+0003  2.03140000000000E+0004
 3.18486000000000E+0003  1.95880000000000E+0004
 3.18492000000000E+0003  1.86800000000000E+0004
 3.18498000000000E+0003  2.01630000000000E+0004
 3.18504000000000E+0003  1.90830000000000E+0004
 3.18510000000000E+0003  1.82700000000000E+0004
 3.18516000000000E+0003  1.94250000000000E+0004
 3.18522000000000E+0003  1.95390000000000E+0004
 3.18528000000000E+0003  1.98450000000000E+0004
 3.18534000000000E+0003  2.00850000000000E+0004
 3.18540000000000E+0003  1.94960000000000E+0004
 3.18546000000000E+0003  1.96420000000000E+0004
 3.18552000000000E+0003  1.93570000000000E+0004
 3.18558000000000E+0003  1.96110000000000E+0004
 3.18564000000000E+0003  1.81470000000000E+0004
 3.18570000000000E+0003  2.00130000000000E+0004
 3.18576000000000E+0003  2.01420000000000E+0004
 3.18582000000000E+0003  1.94250000000000E+0004
 3.18588000000000E+0003  2.01350000000000E+0004
 3.18594000000000E+0003  2.01410000000000E+0004
 3.18600000000000E+0003  2.00850000000000E+0004
 3.18606000000000E+0003  1.88540000000000E+0004
 3.18612000000000E+0003  1.95160000000000E+0004
 3.18618000000000E+0003  1.96830000000000E+0004
 3.18624000000000E+0003  1.90690000000000E+0004
 3.18630000000000E+0003  1.87180000000000E+0004
 3.18636000000000E+0003  1.93490000000000E+0004
 3.18642000000000E+0003  1.88440000000000E+0004
 3.18648000000000E+0003  1.91630000000000E+0004
 3.18654000000000E+0003  1.96050000000000E+0004
 3.18660000000000E+0003  1.88480000000000E+0004
 3.18666000000000E+0003  1.91070000000000E+0004
 3.18672000000000E+0003  2.01030000000000E+0004
 3.18678000000000E+0003  1.92170000000000E+0004
 3.18684000000000E+0003  1.95210000000000E+0004
 3.18690000000000E+0003  2.00020000000000E+0004
 3.18696000000000E+0003  1.86830000000000E+0004
 3.18702000000000E+0003  1.95340000000000E+0004
 3.18708000000000E+0003  1.96970000000000E+0004
 3.18714000000000E+0003  2.05900000000000E+0004
 3.18720000000000E+0003  1.93980000000000E+0004
 3.18726000000000E+0003  1.88450000000000E+0004
 3.18732000000000E+0003  1.96180000000000E+0004
 3.18738000000000E+0003  1.95570000000000E+0004
 3.18744000000000E+0003  1.88140000000000E+0004
 3.18750000000000E+0003  2.05130000000000E+0004
 3.18756000000000E+0003  2.06330000000000E+0004
 3.18762000000000E+0003  2.01420000000000E+0004
 3.18768000000000E+0003  2.05050000000000E+0004
 3.18774000000000E+0003  1.96790000000000E+0004
 3.18780000000000E+0003  1.88630000000000E+0004
 3.18786000000000E+0003  2.06410000000000E+0004
 3.18792000000000E+0003  1.94860000000000E+0004
 3.18798000000000E+0003  1.99550000000000E+0004
 3.18804000000000E+0003  1.99930000000000E+0004
 3.18810000000000E+0003  2.09270000000000E+0004
 3.18816000000000E+0003  2.00440000000000E+0004
 3.18822000000000E+0003  1.92930000000000E+0004
 3.18828000000000E+0003  1.98540000000000E+0004
 3.18834000000000E+0003  2.09160000000000E+0004
 3.18840000000000E+0003  1.91950000000000E+0004
 3.18846000000000E+0003  1.98060000000000E+0004
 3.18852000000000E+0003  1.98640000000000E+0004
 3.18858000000000E+0003  1.94300000000000E+0004
 3.18864000000000E+0003  2.03570000000000E+0004
 3.18870000000000E+0003  2.05040000000000E+0004
 3.18876000000000E+0003  2.06500000000000E+0004
 3.18882000000000E+0003  2.01560000000000E+0004
 3.18888000000000E+0003  2.06940000000000E+0004
 3.18894000000000E+0003  1.99660000000000E+0004
 3.18900000000000E+0003  2.08070000000000E+0004
 3.18906000000000E+0003  2.08370000000000E+0004
 3.18912000000000E+0003  1.90370000000000E+0004
 3.18918000000000E+0003  2.14010000000000E+0004
 3.18924000000000E+0003  2.07120000000000E+0004
 3.18930000000000E+0003  2.07650000000000E+0004
 3.18936000000000E+0003  2.02720000000000E+0004
 3.18942000000000E+0003  2.16290000000000E+0004
 3.18948000000000E+0003  2.06280000000000E+0004
 3.18954000000000E+0003  2.08230000000000E+0004
 3.18960000000000E+0003  1.99690000000000E+0004
 3.18966000000000E+0003  1.99950000000000E+0004
 3.18972000000000E+0003  2.06750000000000E+0004
 3.18978000000000E+0003  1.99940000000000E+0004
 3.18984000000000E+0003  2.10740000000000E+0004
 3.18990000000000E+0003  2.17420000000000E+0004
 3.18996000000000E+0003  2.05390000000000E+0004
 3.19002000000000E+0003  2.08540000000000E+0004
 3.19008000000000E+0003  2.16700000000000E+0004
 3.19014000000000E+0003  2.05950000000000E+0004
 3.19020000000000E+0003  2.00180000000000E+0004
 3.19026000000000E+0003  2.18520000000000E+0004
 3.19032000000000E+0003  2.08390000000000E+0004
 3.19038000000000E+0003  2.01250000000000E+0004
 3.19044000000000E+0003  2.17440000000000E+0004
 3.19050000000000E+0003  2.07720000000000E+0004
 3.19056000000000E+0003  2.06760000000000E+0004
 3.19062000000000E+0003  2.08080000000000E+0004
 3.19068000000000E+0003  2.03760000000000E+0004
 3.19074000000000E+0003  2.12530000000000E+0004
 3.19080000000000E+0003  2.12390000000000E+0004
 3.19086000000000E+0003  2.13360000000000E+0004
 3.19092000000000E+0003  2.05910000000000E+0004
 3.19098000000000E+0003  2.10160000000000E+0004
 3.19104000000000E+0003  2.10850000000000E+0004
 3.19110000000000E+0003  2.21570000000000E+0004
 3.19116000000000E+0003  2.17390000000000E+0004
 3.19122000000000E+0003  2.01660000000000E+0004
 3.19128000000000E+0003  2.13260000000000E+0004
 3.19134000000000E+0003  2.07020000000000E+0004
 3.19140000000000E+0003  2.19510000000000E+0004
 3.19146000000000E+0003  2.21540000000000E+0004
 3.19152000000000E+0003  2.18850000000000E+0004
 3.19158000000000E+0003  2.30390000000000E+0004
 3.19164000000000E+0003  2.14490000000000E+0004
 3.19170000000000E+0003  2.12230000000000E+0004
 3.19176000000000E+0003  2.14220000000000E+0004
 3.19182000000000E+0003  2.10620000000000E+0004
 3.19188000000000E+0003  2.20280000000000E+0004
 3.19194000000000E+0003  2.13680000000000E+0004
 3.19200000000000E+0003  2.08220000000000E+0004
 3.19206000000000E+0003  2.16530000000000E+0004
 3.19212000000000E+0003  2.21230000000000E+0004
 3.19218000000000E+0003  2.19830000000000E+0004
 3.19224000000000E+0003  2.14650000000000E+0004
 3.19230000000000E+0003  2.13920000000000E+0004
 3.19236000000000E+0003  2.07020000000000E+0004
 3.19242000000000E+0003  2.22840000000000E+0004
 3.19248000000000E+0003  2.28310000000000E+0004
 3.19254000000000E+0003  2.25790000000000E+0004
 3.19260000000000E+0003  2.17190000000000E+0004
 3.19266000000000E+0003  2.18820000000000E+0004
 3.19272000000000E+0003  2.22880000000000E+0004
 3.19278000000000E+0003  2.15470000000000E+0004
 3.19284000000000E+0003  2.17290000000000E+0004
 3.19290000000000E+0003  2.18780000000000E+0004
 3.19296000000000E+0003  2.35340000000000E+0004
 3.19302000000000E+0003  2.21640000000000E+0004
 3.19308000000000E+0003  2.19430000000000E+0004
 3.19314000000000E+0003  2.22780000000000E+0004
 3.19320000000000E+0003  2.14260000000000E+0004
 3.19326000000000E+0003  2.24070000000000E+0004
 3.19332000000000E+0003  2.18170000000000E+0004
 3.19338000000000E+0003  2.26900000000000E+0004
 3.19344000000000E+0003  2.28320000000000E+0004
 3.19350000000000E+0003  2.28180000000000E+0004
 3.19356000000000E+0003  2.23670000000000E+0004
 3.19362000000000E+0003  2.28680000000000E+0004
 3.19368000000000E+0003  2.28310000000000E+0004
 3.19374000000000E+0003  2.23090000000000E+0004
 3.19380000000000E+0003  2.22820000000000E+0004
 3.19386000000000E+0003  2.28010000000000E+0004
 3.19392000000000E+0003  2.25020000000000E+0004
 3.19398000000000E+0003  2.21470000000000E+0004
 3.19404000000000E+0003  2.26290000000000E+0004
 3.19410000000000E+0003  2.32090000000000E+0004
 3.19416000000000E+0003  2.30540000000000E+0004
 3.19422000000000E+0003  2.26420000000000E+0004
 3.19428000000000E+0003  2.15370000000000E+0004
 3.19434000000000E+0003  2.21520000000000E+0004
 3.19440000000000E+0003  2.31320000000000E+0004
 3.19446000000000E+0003  2.45380000000000E+0004
 3.19452000000000E+0003  2.37010000000000E+0004
 3.19458000000000E+0003  2.32750000000000E+0004
 3.19464000000000E+0003  2.27740000000000E+0004
 3.19470000000000E+0003  2.36300000000000E+0004
 3.19476000000000E+0003  2.33310000000000E+0004
 3.19482000000000E+0003  2.35610000000000E+0004
 3.19488000000000E+0003  2.22420000000000E+0004
 3.19494000000000E+0003  2.35060000000000E+0004
 3.19500000000000E+0003  2.45630000000000E+0004
 3.19506000000000E+0003  2.48600000000000E+0004
 3.19512000000000E+0003  2.26890000000000E+0004
 3.19518000000000E+0003  2.38410000000000E+0004
 3.19524000000000E+0003  2.41000000000000E+0004
 3.19530000000000E+0003  2.47180000000000E+0004
 3.19536000000000E+0003  2.51910000000000E+0004
 3.19542000000000E+0003  2.41320000000000E+0004
 3.19548000000000E+0003  2.50380000000000E+0004
 3.19554000000000E+0003  2.48580000000000E+0004
 3.19560000000000E+0003  2.62240000000000E+0004
 3.19566000000000E+0003  2.58010000000000E+0004
 3.19572000000000E+0003  2.56980000000000E+0004
 3.19578000000000E+0003  2.52320000000000E+0004
 3.19584000000000E+0003  2.59460000000000E+0004
 3.19590000000000E+0003  2.66240000000000E+0004
 3.19596000000000E+0003  2.60770000000000E+0004
 3.19602000000000E+0003  2.64390000000000E+0004
 3.19608000000000E+0003  2.84010000000000E+0004
 3.19614000000000E+0003  2.76510000000000E+0004
 3.19620000000000E+0003  2.79960000000000E+0004
 3.19626000000000E+0003  2.81420000000000E+0004
 3.19632000000000E+0003  2.78330000000000E+0004
 3.19638000000000E+0003  2.90330000000000E+0004
 3.19644000000000E+0003  2.98310000000000E+0004
 3.19650000000000E+0003  2.90960000000000E+0004
 3.19656000000000E+0003  2.79850000000000E+0004
 3.19662000000000E+0003  2.92210000000000E+0004
 3.19668000000000E+0003  3.02400000000000E+0004
 3.19674000000000E+0003  3.00330000000000E+0004
 3.19680000000000E+0003  3.09520000000000E+0004
 3.19686000000000E+0003  3.14750000000000E+0004
 3.19692000000000E+0003  3.12210000000000E+0004
 3.19698000000000E+0003  3.13820000000000E+0004
 3.19704000000000E+0003  3.01990000000000E+0004
 3.19710000000000E+0003  3.23650000000000E+0004
 3.19716000000000E+0003  3.23640000000000E+0004
 3.19722000000000E+0003  3.23390000000000E+0004
 3.19728000000000E+0003  3.32250000000000E+0004
 3.19734000000000E+0003  3.50200000000000E+0004
 3.19740000000000E+0003  3.50630000000000E+0004
 3.19746000000000E+0003  3.66280000000000E+0004
 3.19752000000000E+0003  3.64440000000000E+0004
 3.19758000000000E+0003  3.74460000000000E+0004
 3.19764000000000E+0003  3.80160000000000E+0004
 3.19770000000000E+0003  3.78770000000000E+0004
 3.19776000000000E+0003  3.87920000000000E+0004
 3.19782000000000E+0003  3.91900000000000E+0004
 3.19788000000000E+0003  4.05240000000000E+0004
 3.19794000000000E+0003  3.96440000000000E+0004
 3.19800000000000E+0003  4.23670000000000E+0004
 3.19806000000000E+0003  4.53820000000000E+0004
 3.19812000000000E+0003  4.44800000000000E+0004
 3.19818000000000E+0003  4.45900000000000E+0004
 3.19824000000000E+0003  4.42460000000000E+0004
 3.19830000000000E+0003  4.63730000000000E+0004
 3.19836000000000E+0003  4.76270000000000E+0004
 3.19842000000000E+0003  4.82850000000000E+0004
 3.19848000000000E+0003  4.82340000000000E+0004
 3.19854000000000E+0003  4.87270000000000E+0004
 3.19860000000000E+0003  5.04440000000000E+0004
 3.19866000000000E+0003  5.28670000000000E+0004
 3.19872000000000E+0003  5.19690000000000E+0004
 3.19878000000000E+0003  5.40330000000000E+0004
 3.19884000000000E+0003  5.18160000000000E+0004
 3.19890000000000E+0003  5.13890000000000E+0004
 3.19896000000000E+0003  5.39920000000000E+0004
 3.19902000000000E+0003  5.25490000000000E+0004
 3.19908000000000E+0003  5.49570000000000E+0004
 3.19914000000000E+0003  5.34280000000000E+0004
 3.19920000000000E+0003  5.31280000000000E+0004
 3.19926000000000E+0003  5.31240000000000E+0004
 3.19932000000000E+0003  5.29700000000000E+0004
 3.19938000000000E+0003  5.39030000000000E+0004
 3.19944000000000E+0003  5.23820000000000E+0004
 3.19950000000000E+0003  4.97970000000000E+0004
 3.19956000000000E+0003  4.94730000000000E+0004
 3.19962000000000E+0003  4.81210000000000E+0004
 3.19968000000000E+0003  4.73950000000000E+0004
 3.19974000000000E+0003  4.80940000000000E+0004
 3.19980000000000E+0003  4.57110000000000E+0004
 3.19986000000000E+0003  4.51680000000000E+0004
 3.19992000000000E+0003  4.26320000000000E+0004
 3.19998000000000E+0003  4.09230000000000E+0004
 3.20004000000000E+0003  4.06010000000000E+0004
 3.20010000000000E+0003  3.91560000000000E+0004
 3.20016000000000E+0003  3.90410000000000E+0004
 3.20022000000000E+0003  3.82100000000000E+0004
 3.20028000000000E+0003  3.67050000000000E+0004
 3.20034000000000E+0003  3.47980000000000E+0004
 3.20040000000000E+0003  3.39190000000000E+0004
 3.20046000000000E+0003  3.34670000000000E+0004
 3.20052000000000E+0003  3.23780000000000E+0004
 3.20058000000000E+0003  3.13270000000000E+0004
 3.20064000000000E+0003  3.01000000000000E+0004
 3.20070000000000E+0003  3.03140000000000E+0004
 3.20076000000000E+0003  2.97090000000000E+0004
 3.20082000000000E+0003  2.78810000000000E+0004
 3.20088000000000E+0003  2.64240000000000E+0004
 3.20094000000000E+0003  2.69660000000000E+0004
 3.20100000000000E+0003  2.54320000000000E+0004
 3.20106000000000E+0003  2.57540000000000E+0004
 3.20112000000000E+0003  2.59520000000000E+0004
 3.20118000000000E+0003  2.53170000000000E+0004
 3.20124000000000E+0003  2.49340000000000E+0004
 3.20130000000000E+0003  2.33630000000000E+0004
 3.20136000000000E+0003  2.22230000000000E+0004
 3.20142000000000E+0003  2.22570000000000E+0004
 3.20148000000000E+0003  2.27520000000000E+0004
 3.20154000000000E+0003  2.22320000000000E+0004
 3.20160000000000E+0003  2.24320000000000E+0004
 3.20166000000000E+0003  2.15840000000000E+0004
 3.20172000000000E+0003  2.09400000000000E+0004
 3.20178000000000E+0003  2.01030000000000E+0004
 3.20184000000000E+0003  1.97640000000000E+0004
 3.20190000000000E+0003  1.87690000000000E+0004
 3.20196000000000E+0003  1.97370000000000E+0004
 3.20202000000000E+0003  1.92060000000000E+0004
 3.20208000000000E+0003  1.85930000000000E+0004
 3.20214000000000E+0003  1.81410000000000E+0004
 3.20220000000000E+0003  1.86980000000000E+0004
 3.20226000000000E+0003  1.81460000000000E+0004
 3.20232000000000E+0003  1.78370000000000E+0004
 3.20238000000000E+0003  1.65410000000000E+0004
 3.20244000000000E+0003  1.71540000000000E+0004
 3.20250000000000E+0003  1.68680000000000E+0004
 3.20256000000000E+0003  1.69520000000000E+0004
 3.20262000000000E+0003  1.57920000000000E+0004
 3.20268000000000E+0003  1.70900000000000E+0004
 3.20274000000000E+0003  1.67880000000000E+0004
 3.20280000000000E+0003  1.69530000000000E+0004
 3.20286000000000E+0003  1.60960000000000E+0004
 3.20292000000000E+0003  1.63250000000000E+0004
 3.20298000000000E+0003  1.64940000000000E+0004
 3.20304000000000E+0003  1.65600000000000E+0004
 3.20310000000000E+0003  1.68420000000000E+0004
 3.20316000000000E+0003  1.57350000000000E+0004
 3.20322000000000E+0003  1.53120000000000E+0004
 3.20328000000000E+0003  1.49560000000000E+0004
 3.20334000000000E+0003  1.62050000000000E+0004
 3.20340000000000E+0003  1.43510000000000E+0004
 3.20346000000000E+0003  1.57020000000000E+0004
 3.20352000000000E+0003  1.49010000000000E+0004
 3.20358000000000E+0003  1.54100000000000E+0004
 3.20364000000000E+0003  1.43820000000000E+0004
 3.20370000000000E+0003  1.40490000000000E+0004
 3.20376000000000E+0003  1.54430000000000E+0004
 3.20382000000000E+0003  1.35270000000000E+0004
 3.20388000000000E+0003  1.49390000000000E+0004
 3.20394000000000E+0003  1.36630000000000E+0004
 3.20400000000000E+0003  1.39910000000000E+0004
 3.20406000000000E+0003  1.46870000000000E+0004
 3.20412000000000E+0003  1.48120000000000E+0004
 3.20418000000000E+0003  1.45470000000000E+0004
 3.20424000000000E+0003  1.45780000000000E+0004
 3.20430000000000E+0003  1.38650000000000E+0004
 3.20436000000000E+0003  1.40290000000000E+0004
 3.20442000000000E+0003  1.40600000000000E+0004
 3.20448000000000E+0003  1.47680000000000E+0004
 3.20454000000000E+0003  1.48050000000000E+0004
 3.20460000000000E+0003  1.41590000000000E+0004
 3.20466000000000E+0003  1.35900000000000E+0004
 3.20472000000000E+0003  1.36710000000000E+0004
 3.20478000000000E+0003  1.47680000000000E+0004
 3.20484000000000E+0003  1.43440000000000E+0004
 3.20490000000000E+0003  1.31680000000000E+0004
 3.20496000000000E+0003  1.34400000000000E+0004
 3.20502000000000E+0003  1.35000000000000E+0004
 3.20508000000000E+0003  1.42680000000000E+0004
 3.20514000000000E+0003  1.28760000000000E+0004
 3.20520000000000E+0003  1.29900000000000E+0004
 3.20526000000000E+0003  1.44610000000000E+0004
 3.20532000000000E+0003  1.36610000000000E+0004
 3.20538000000000E+0003  1.30270000000000E+0004
 3.20544000000000E+0003  1.33250000000000E+0004
 3.20550000000000E+0003  1.28070000000000E+0004
 3.20556000000000E+0003  1.29500000000000E+0004
 3.20562000000000E+0003  1.34770000000000E+0004
 3.20568000000000E+0003  1.33530000000000E+0004
 3.20574000000000E+0003  1.34740000000000E+0004
 3.20580000000000E+0003  1.27310000000000E+0004
 3.20586000000000E+0003  1.25710000000000E+0004
 3.20592000000000E+0003  1.43630000000000E+0004
 3.20598000000000E+0003  1.41980000000000E+0004
 3.20604000000000E+0003  1.32480000000000E+0004
 3.20610000000000E+0003  1.35990000000000E+0004
 3.20616000000000E+0003  1.41430000000000E+0004
 3.20622000000000E+0003  1.32070000000000E+0004
 3.20628000000000E+0003  1.27700000000000E+0004
 3.20634000000000E+0003  1.30010000000000E+0004
 3.20640000000000E+0003  1.26500000000000E+0004
 3.20646000000000E+0003  1.27330000000000E+0004
 3.20652000000000E+0003  1.33940000000000E+0004
 3.20658000000000E+0003  1.25250000000000E+0004
 3.20664000000000E+0003  1.27640000000000E+0004
 3.20670000000000E+0003  1.30230000000000E+0004
 3.20676000000000E+0003  1.25840000000000E+0004
 3.20682000000000E+0003  1.23240000000000E+0004
 3.20688000000000E+0003  1.30440000000000E+0004
 3.20694000000000E+0003  1.29700000000000E+0004
 3.20700000000000E+0003  1.26760000000000E+0004
 3.20706000000000E+0003  1.19700000000000E+0004
 3.20712000000000E+0003  1.30840000000000E+0004
 3.20718000000000E+0003  1.32250000000000E+0004
 3.20724000000000E+0003  1.24920000000000E+0004
 3.20730000000000E+0003  1.31750000000000E+0004
 3.20736000000000E+0003  1.22540000000000E+0004
 3.20742000000000E+0003  1.24380000000000E+0004
 3.20748000000000E+0003  1.21140000000000E+0004
 3.20754000000000E+0003  1.20090000000000E+0004
 3.20760000000000E+0003  1.21770000000000E+0004
 3.20766000000000E+0003  1.27470000000000E+0004
 3.20772000000000E+0003  1.21750000000000E+0004
 3.20778000000000E+0003  1.38150000000000E+0004
 3.20784000000000E+0003  1.30750000000000E+0004
 3.20790000000000E+0003  1.26790000000000E+0004
 3.20796000000000E+0003  1.27750000000000E+0004
 3.20802000000000E+0003  1.30360000000000E+0004
 3.20808000000000E+0003  1.26010000000000E+0004
 3.20814000000000E+0003  1.20800000000000E+0004
 3.20820000000000E+0003  1.30770000000000E+0004
 3.20826000000000E+0003  1.23470000000000E+0004
 3.20832000000000E+0003  1.34670000000000E+0004
 3.20838000000000E+0003  1.27830000000000E+0004
 3.20844000000000E+0003  1.29090000000000E+0004
 3.20850000000000E+0003  1.26130000000000E+0004
 3.20856000000000E+0003  1.17280000000000E+0004
 3.20862000000000E+0003  1.30320000000000E+0004
 3.20868000000000E+0003  1.29250000000000E+0004
 3.20874000000000E+0003  1.28140000000000E+0004
 3.20880000000000E+0003  1.21000000000000E+0004
 3.20886000000000E+0003  1.18550000000000E+0004
 3.20892000000000E+0003  1.09880000000000E+0004
 3.20898000000000E+0003  1.18260000000000E+0004
 3.20904000000000E+0003  1.20090000000000E+0004
 3.20910000000000E+0003  1.24250000000000E+0004
 3.20916000000000E+0003  1.26550000000000E+0004
 3.20922000000000E+0003  1.23260000000000E+0004
 3.20928000000000E+0003  1.26540000000000E+0004
 3.20934000000000E+0003  1.38440000000000E+0004
 3.20940000000000E+0003  1.24510000000000E+0004
 3.20946000000000E+0003  1.27450000000000E+0004
 3.20952000000000E+0003  1.27210000000000E+0004
 3.20958000000000E+0003  1.22820000000000E+0004
 3.20964000000000E+0003  1.25160000000000E+0004
 3.20970000000000E+0003  1.27860000000000E+0004
 3.20976000000000E+0003  1.30760000000000E+0004
 3.20982000000000E+0003  1.28700000000000E+0004
 3.20988000000000E+0003  1.20930000000000E+0004
 3.20994000000000E+0003  1.15860000000000E+0004
 3.21000000000000E+0003  1.25260000000000E+0004

