[Info]
Number of Regions=0001
Version=1.3.1

[Region 1]
Region Name=O1s_4600
Dimension 1 name=Kinetic Energy [eV]
Dimension 1 size=161
Dimension 1 scale=4055 4055.1 4055.2 4055.3 4055.4 4055.5 4055.6 4055.7 4055.8 4055.9 4056 4056.1 4056.2 4056.3 4056.4 4056.5 4056.6 4056.7 4056.8 4056.9 4057 4057.1 4057.2 4057.3 4057.4 4057.5 4057.6 4057.7 4057.8 4057.9 4058 4058.1 4058.2 4058.3 4058.4 4058.5 4058.6 4058.7 4058.8 4058.9 4059 4059.1 4059.2 4059.3 4059.4 4059.5 4059.6 4059.7 4059.8 4059.9 4060 4060.1 4060.2 4060.3 4060.4 4060.5 4060.6 4060.7 4060.8 4060.9 4061 4061.1 4061.2 4061.3 4061.4 4061.5 4061.6 4061.7 4061.8 4061.9 4062 4062.1 4062.2 4062.3 4062.4 4062.5 4062.6 4062.7 4062.8 4062.9 4063 4063.1 4063.2 4063.3 4063.4 4063.5 4063.6 4063.7 4063.8 4063.9 4064 4064.1 4064.2 4064.3 4064.4 4064.5 4064.6 4064.7 4064.8 4064.9 4065 4065.1 4065.2 4065.3 4065.4 4065.5 4065.6 4065.7 4065.8 4065.9 4066 4066.1 4066.2 4066.3 4066.4 4066.5 4066.6 4066.7 4066.8 4066.9 4067 4067.1 4067.2 4067.3 4067.4 4067.5 4067.6 4067.7 4067.8 4067.9 4068 4068.1 4068.2 4068.3 4068.4 4068.5 4068.6 4068.7 4068.8 4068.9 4069 4069.1 4069.2 4069.3 4069.4 4069.5 4069.6 4069.7 4069.8 4069.9 4070 4070.1 4070.2 4070.3 4070.4 4070.5 4070.6 4070.7 4070.8 4070.9 4071
Dimension 2 name=Region Iteration[a.u.]
Dimension 2 size=3
Dimension 2 scale=1 2 3

[Info 1]
Region Name=O1s_4600
Lens Mode=T_HiPPHAXPES
Pass Energy=100
Number of Sweeps=1
Excitation Energy=3.10021844987699E-317
Energy Scale=Kinetic
Acquisition Mode=Swept
Energy Unit=Kinetic
Center Energy=4063
Low Energy=4055
High Energy=4071
Energy Step=0.1
Step Time=243
Detector First X-Channel=1
Detector Last X-Channel=512
Detector First Y-Channel=1
Detector Last Y-Channel=460
Number of Slices=1
File=D:\Data\2019_Blomberg_Pd100\Pd100_0091.pxt,.ibw,.txt
Sequence=D:\Data\2018_11_26_Copper\Sequence_files_Copper.seq
Spectrum Name=Pd100_O1s_4600
Instrument=HiPP-2 10kV-9862
Location=
User=
Sample=Pd100
Comments=Pd100 CO oxidation;
Date=2019-03-24
Time=20:45:42
Time per Spectrum Channel=20.898
DetectorMode=ADC
[Run Mode Information 1]
Name=Add Dimension
Name=Add Dimension


[Data 1]
 4.05500000000000E+0003  6.19900000000000E+0004  6.04580000000000E+0004  5.73690000000000E+0004
 4.05510000000000E+0003  6.14240000000000E+0004  5.91320000000000E+0004  6.07090000000000E+0004
 4.05520000000000E+0003  6.10360000000000E+0004  6.27610000000000E+0004  5.81430000000000E+0004
 4.05530000000000E+0003  6.24340000000000E+0004  6.25210000000000E+0004  5.99620000000000E+0004
 4.05540000000000E+0003  6.53390000000000E+0004  6.17280000000000E+0004  6.10660000000000E+0004
 4.05550000000000E+0003  6.47280000000000E+0004  6.23270000000000E+0004  6.06650000000000E+0004
 4.05560000000000E+0003  6.71450000000000E+0004  6.19060000000000E+0004  6.14120000000000E+0004
 4.05570000000000E+0003  7.02530000000000E+0004  6.24470000000000E+0004  6.55500000000000E+0004
 4.05580000000000E+0003  6.38780000000000E+0004  6.24920000000000E+0004  6.45940000000000E+0004
 4.05590000000000E+0003  6.54060000000000E+0004  6.42120000000000E+0004  6.48240000000000E+0004
 4.05600000000000E+0003  6.65240000000000E+0004  6.71910000000000E+0004  6.50110000000000E+0004
 4.05610000000000E+0003  6.85250000000000E+0004  6.67190000000000E+0004  6.77020000000000E+0004
 4.05620000000000E+0003  6.99230000000000E+0004  6.85380000000000E+0004  6.79410000000000E+0004
 4.05630000000000E+0003  6.98040000000000E+0004  6.84660000000000E+0004  6.83550000000000E+0004
 4.05640000000000E+0003  7.28420000000000E+0004  6.97930000000000E+0004  6.61940000000000E+0004
 4.05650000000000E+0003  7.29430000000000E+0004  7.01120000000000E+0004  6.80050000000000E+0004
 4.05660000000000E+0003  7.17100000000000E+0004  7.27360000000000E+0004  7.12670000000000E+0004
 4.05670000000000E+0003  7.14190000000000E+0004  7.03050000000000E+0004  6.93900000000000E+0004
 4.05680000000000E+0003  7.33160000000000E+0004  7.13990000000000E+0004  7.08380000000000E+0004
 4.05690000000000E+0003  7.73390000000000E+0004  7.25070000000000E+0004  6.94470000000000E+0004
 4.05700000000000E+0003  7.43160000000000E+0004  7.21930000000000E+0004  7.05960000000000E+0004
 4.05710000000000E+0003  7.55820000000000E+0004  7.42380000000000E+0004  7.35990000000000E+0004
 4.05720000000000E+0003  7.35970000000000E+0004  7.21130000000000E+0004  7.53510000000000E+0004
 4.05730000000000E+0003  7.93700000000000E+0004  7.12680000000000E+0004  7.53520000000000E+0004
 4.05740000000000E+0003  7.50310000000000E+0004  7.50850000000000E+0004  7.60610000000000E+0004
 4.05750000000000E+0003  7.64220000000000E+0004  7.39230000000000E+0004  7.67700000000000E+0004
 4.05760000000000E+0003  7.94050000000000E+0004  7.62860000000000E+0004  7.70290000000000E+0004
 4.05770000000000E+0003  8.08260000000000E+0004  7.98810000000000E+0004  8.13380000000000E+0004
 4.05780000000000E+0003  8.42850000000000E+0004  8.38560000000000E+0004  8.43840000000000E+0004
 4.05790000000000E+0003  9.25920000000000E+0004  8.57820000000000E+0004  8.51910000000000E+0004
 4.05800000000000E+0003  9.37450000000000E+0004  8.99770000000000E+0004  9.39400000000000E+0004
 4.05810000000000E+0003  9.86820000000000E+0004  9.59870000000000E+0004  9.38620000000000E+0004
 4.05820000000000E+0003  1.00113000000000E+0005  1.00915000000000E+0005  9.57610000000000E+0004
 4.05830000000000E+0003  9.70370000000000E+0004  9.68440000000000E+0004  9.57490000000000E+0004
 4.05840000000000E+0003  9.58010000000000E+0004  9.26330000000000E+0004  9.19230000000000E+0004
 4.05850000000000E+0003  8.81680000000000E+0004  8.81490000000000E+0004  8.81070000000000E+0004
 4.05860000000000E+0003  8.70970000000000E+0004  8.70450000000000E+0004  8.46580000000000E+0004
 4.05870000000000E+0003  8.81060000000000E+0004  8.42490000000000E+0004  8.51570000000000E+0004
 4.05880000000000E+0003  9.03420000000000E+0004  8.45900000000000E+0004  8.78090000000000E+0004
 4.05890000000000E+0003  9.17450000000000E+0004  9.38300000000000E+0004  9.15880000000000E+0004
 4.05900000000000E+0003  1.03386000000000E+0005  1.01921000000000E+0005  1.01140000000000E+0005
 4.05910000000000E+0003  1.16492000000000E+0005  1.17213000000000E+0005  1.16914000000000E+0005
 4.05920000000000E+0003  1.30808000000000E+0005  1.29269000000000E+0005  1.33031000000000E+0005
 4.05930000000000E+0003  1.37386000000000E+0005  1.39180000000000E+0005  1.36327000000000E+0005
 4.05940000000000E+0003  1.35842000000000E+0005  1.32863000000000E+0005  1.28426000000000E+0005
 4.05950000000000E+0003  1.25118000000000E+0005  1.21431000000000E+0005  1.16700000000000E+0005
 4.05960000000000E+0003  1.13643000000000E+0005  1.13208000000000E+0005  1.06029000000000E+0005
 4.05970000000000E+0003  1.12003000000000E+0005  1.10386000000000E+0005  1.07669000000000E+0005
 4.05980000000000E+0003  1.17274000000000E+0005  1.15214000000000E+0005  1.12481000000000E+0005
 4.05990000000000E+0003  1.31028000000000E+0005  1.23700000000000E+0005  1.24602000000000E+0005
 4.06000000000000E+0003  1.41103000000000E+0005  1.32177000000000E+0005  1.37753000000000E+0005
 4.06010000000000E+0003  1.43996000000000E+0005  1.40566000000000E+0005  1.44728000000000E+0005
 4.06020000000000E+0003  1.43015000000000E+0005  1.40187000000000E+0005  1.39481000000000E+0005
 4.06030000000000E+0003  1.31041000000000E+0005  1.27711000000000E+0005  1.25666000000000E+0005
 4.06040000000000E+0003  1.13653000000000E+0005  1.10645000000000E+0005  1.08952000000000E+0005
 4.06050000000000E+0003  1.03856000000000E+0005  9.78470000000000E+0004  9.53400000000000E+0004
 4.06060000000000E+0003  9.72680000000000E+0004  9.67830000000000E+0004  9.03380000000000E+0004
 4.06070000000000E+0003  9.72580000000000E+0004  9.46510000000000E+0004  8.95390000000000E+0004
 4.06080000000000E+0003  9.42120000000000E+0004  8.98200000000000E+0004  9.33450000000000E+0004
 4.06090000000000E+0003  9.49020000000000E+0004  9.34210000000000E+0004  9.13170000000000E+0004
 4.06100000000000E+0003  9.69970000000000E+0004  9.57900000000000E+0004  9.07550000000000E+0004
 4.06110000000000E+0003  9.75550000000000E+0004  9.71710000000000E+0004  9.41980000000000E+0004
 4.06120000000000E+0003  1.00904000000000E+0005  9.94380000000000E+0004  9.54680000000000E+0004
 4.06130000000000E+0003  1.03490000000000E+0005  9.89260000000000E+0004  9.54990000000000E+0004
 4.06140000000000E+0003  1.05181000000000E+0005  1.01213000000000E+0005  1.00149000000000E+0005
 4.06150000000000E+0003  1.06716000000000E+0005  1.01551000000000E+0005  1.00718000000000E+0005
 4.06160000000000E+0003  1.10373000000000E+0005  1.05974000000000E+0005  1.01626000000000E+0005
 4.06170000000000E+0003  1.13846000000000E+0005  1.07272000000000E+0005  1.06907000000000E+0005
 4.06180000000000E+0003  1.12626000000000E+0005  1.10350000000000E+0005  1.12396000000000E+0005
 4.06190000000000E+0003  1.16376000000000E+0005  1.15853000000000E+0005  1.14056000000000E+0005
 4.06200000000000E+0003  1.19903000000000E+0005  1.24050000000000E+0005  1.18315000000000E+0005
 4.06210000000000E+0003  1.27958000000000E+0005  1.21710000000000E+0005  1.22210000000000E+0005
 4.06220000000000E+0003  1.33454000000000E+0005  1.26456000000000E+0005  1.23826000000000E+0005
 4.06230000000000E+0003  1.35642000000000E+0005  1.27636000000000E+0005  1.30042000000000E+0005
 4.06240000000000E+0003  1.41081000000000E+0005  1.38540000000000E+0005  1.34506000000000E+0005
 4.06250000000000E+0003  1.44665000000000E+0005  1.37608000000000E+0005  1.38187000000000E+0005
 4.06260000000000E+0003  1.49901000000000E+0005  1.50580000000000E+0005  1.43754000000000E+0005
 4.06270000000000E+0003  1.58916000000000E+0005  1.55448000000000E+0005  1.49932000000000E+0005
 4.06280000000000E+0003  1.60479000000000E+0005  1.62290000000000E+0005  1.55288000000000E+0005
 4.06290000000000E+0003  1.66322000000000E+0005  1.62245000000000E+0005  1.61910000000000E+0005
 4.06300000000000E+0003  1.74780000000000E+0005  1.74731000000000E+0005  1.69337000000000E+0005
 4.06310000000000E+0003  1.82954000000000E+0005  1.79427000000000E+0005  1.78328000000000E+0005
 4.06320000000000E+0003  1.91453000000000E+0005  1.86755000000000E+0005  1.87236000000000E+0005
 4.06330000000000E+0003  1.95500000000000E+0005  1.97625000000000E+0005  1.92651000000000E+0005
 4.06340000000000E+0003  2.07047000000000E+0005  2.06826000000000E+0005  1.95002000000000E+0005
 4.06350000000000E+0003  2.14554000000000E+0005  2.16089000000000E+0005  2.06575000000000E+0005
 4.06360000000000E+0003  2.21685000000000E+0005  2.15123000000000E+0005  2.15900000000000E+0005
 4.06370000000000E+0003  2.29433000000000E+0005  2.27976000000000E+0005  2.25556000000000E+0005
 4.06380000000000E+0003  2.36236000000000E+0005  2.31005000000000E+0005  2.33836000000000E+0005
 4.06390000000000E+0003  2.46795000000000E+0005  2.35240000000000E+0005  2.40511000000000E+0005
 4.06400000000000E+0003  2.50683000000000E+0005  2.46159000000000E+0005  2.34987000000000E+0005
 4.06410000000000E+0003  2.56665000000000E+0005  2.47948000000000E+0005  2.41890000000000E+0005
 4.06420000000000E+0003  2.55762000000000E+0005  2.55321000000000E+0005  2.42754000000000E+0005
 4.06430000000000E+0003  2.56201000000000E+0005  2.53559000000000E+0005  2.44706000000000E+0005
 4.06440000000000E+0003  2.56694000000000E+0005  2.50133000000000E+0005  2.50578000000000E+0005
 4.06450000000000E+0003  2.57503000000000E+0005  2.48890000000000E+0005  2.44703000000000E+0005
 4.06460000000000E+0003  2.51908000000000E+0005  2.45458000000000E+0005  2.41595000000000E+0005
 4.06470000000000E+0003  2.44531000000000E+0005  2.44863000000000E+0005  2.37232000000000E+0005
 4.06480000000000E+0003  2.43135000000000E+0005  2.32034000000000E+0005  2.28709000000000E+0005
 4.06490000000000E+0003  2.28372000000000E+0005  2.23474000000000E+0005  2.24068000000000E+0005
 4.06500000000000E+0003  2.20147000000000E+0005  2.15141000000000E+0005  2.11049000000000E+0005
 4.06510000000000E+0003  2.13489000000000E+0005  2.04330000000000E+0005  2.00353000000000E+0005
 4.06520000000000E+0003  1.99874000000000E+0005  1.92636000000000E+0005  1.87947000000000E+0005
 4.06530000000000E+0003  1.81761000000000E+0005  1.81620000000000E+0005  1.78667000000000E+0005
 4.06540000000000E+0003  1.72423000000000E+0005  1.68484000000000E+0005  1.66503000000000E+0005
 4.06550000000000E+0003  1.65353000000000E+0005  1.61367000000000E+0005  1.52153000000000E+0005
 4.06560000000000E+0003  1.49711000000000E+0005  1.46332000000000E+0005  1.44948000000000E+0005
 4.06570000000000E+0003  1.43906000000000E+0005  1.36725000000000E+0005  1.32382000000000E+0005
 4.06580000000000E+0003  1.30081000000000E+0005  1.23850000000000E+0005  1.26014000000000E+0005
 4.06590000000000E+0003  1.20879000000000E+0005  1.15582000000000E+0005  1.12644000000000E+0005
 4.06600000000000E+0003  1.11517000000000E+0005  1.03987000000000E+0005  1.07107000000000E+0005
 4.06610000000000E+0003  1.06873000000000E+0005  9.98130000000000E+0004  9.86790000000000E+0004
 4.06620000000000E+0003  9.57250000000000E+0004  9.51510000000000E+0004  9.11410000000000E+0004
 4.06630000000000E+0003  9.02040000000000E+0004  8.83470000000000E+0004  8.70870000000000E+0004
 4.06640000000000E+0003  8.72090000000000E+0004  8.22670000000000E+0004  8.31290000000000E+0004
 4.06650000000000E+0003  8.14460000000000E+0004  7.92110000000000E+0004  7.63530000000000E+0004
 4.06660000000000E+0003  7.46650000000000E+0004  7.47080000000000E+0004  7.20230000000000E+0004
 4.06670000000000E+0003  7.08900000000000E+0004  6.80410000000000E+0004  6.59460000000000E+0004
 4.06680000000000E+0003  6.70370000000000E+0004  6.44750000000000E+0004  6.37190000000000E+0004
 4.06690000000000E+0003  6.73600000000000E+0004  6.11840000000000E+0004  6.22690000000000E+0004
 4.06700000000000E+0003  5.83700000000000E+0004  5.80030000000000E+0004  5.68270000000000E+0004
 4.06710000000000E+0003  5.77140000000000E+0004  5.40710000000000E+0004  5.48390000000000E+0004
 4.06720000000000E+0003  5.39880000000000E+0004  5.15250000000000E+0004  5.21500000000000E+0004
 4.06730000000000E+0003  5.06920000000000E+0004  4.97970000000000E+0004  5.16990000000000E+0004
 4.06740000000000E+0003  4.98200000000000E+0004  4.70400000000000E+0004  4.63430000000000E+0004
 4.06750000000000E+0003  4.51160000000000E+0004  4.31570000000000E+0004  4.33180000000000E+0004
 4.06760000000000E+0003  4.74160000000000E+0004  4.42550000000000E+0004  4.25990000000000E+0004
 4.06770000000000E+0003  4.36930000000000E+0004  4.23840000000000E+0004  4.01770000000000E+0004
 4.06780000000000E+0003  4.36370000000000E+0004  4.18230000000000E+0004  3.99860000000000E+0004
 4.06790000000000E+0003  3.98560000000000E+0004  3.81520000000000E+0004  3.78060000000000E+0004
 4.06800000000000E+0003  3.90390000000000E+0004  3.80880000000000E+0004  3.72070000000000E+0004
 4.06810000000000E+0003  3.89040000000000E+0004  3.63460000000000E+0004  3.65020000000000E+0004
 4.06820000000000E+0003  3.63330000000000E+0004  3.27470000000000E+0004  3.50450000000000E+0004
 4.06830000000000E+0003  3.47590000000000E+0004  3.35630000000000E+0004  3.32340000000000E+0004
 4.06840000000000E+0003  3.29090000000000E+0004  3.23000000000000E+0004  3.13130000000000E+0004
 4.06850000000000E+0003  3.09420000000000E+0004  3.14540000000000E+0004  3.12060000000000E+0004
 4.06860000000000E+0003  3.14190000000000E+0004  2.92290000000000E+0004  2.98940000000000E+0004
 4.06870000000000E+0003  2.81750000000000E+0004  3.01890000000000E+0004  3.11990000000000E+0004
 4.06880000000000E+0003  2.92100000000000E+0004  2.95470000000000E+0004  2.77650000000000E+0004
 4.06890000000000E+0003  2.87280000000000E+0004  2.76780000000000E+0004  2.80440000000000E+0004
 4.06900000000000E+0003  2.75020000000000E+0004  2.55440000000000E+0004  2.54800000000000E+0004
 4.06910000000000E+0003  2.56440000000000E+0004  2.64630000000000E+0004  2.55700000000000E+0004
 4.06920000000000E+0003  2.60710000000000E+0004  2.45890000000000E+0004  2.58850000000000E+0004
 4.06930000000000E+0003  2.42850000000000E+0004  2.36450000000000E+0004  2.29500000000000E+0004
 4.06940000000000E+0003  2.39360000000000E+0004  2.48480000000000E+0004  2.36140000000000E+0004
 4.06950000000000E+0003  2.47800000000000E+0004  2.30140000000000E+0004  2.32750000000000E+0004
 4.06960000000000E+0003  2.37010000000000E+0004  2.30430000000000E+0004  2.27760000000000E+0004
 4.06970000000000E+0003  2.29330000000000E+0004  2.29570000000000E+0004  2.19530000000000E+0004
 4.06980000000000E+0003  2.29030000000000E+0004  2.10920000000000E+0004  2.16840000000000E+0004
 4.06990000000000E+0003  2.12430000000000E+0004  2.14400000000000E+0004  2.16200000000000E+0004
 4.07000000000000E+0003  2.22150000000000E+0004  2.16970000000000E+0004  2.00110000000000E+0004
 4.07010000000000E+0003  2.07630000000000E+0004  2.03980000000000E+0004  1.97810000000000E+0004
 4.07020000000000E+0003  2.20690000000000E+0004  2.06290000000000E+0004  2.06510000000000E+0004
 4.07030000000000E+0003  1.98260000000000E+0004  1.98790000000000E+0004  1.97260000000000E+0004
 4.07040000000000E+0003  2.04900000000000E+0004  2.06800000000000E+0004  1.99670000000000E+0004
 4.07050000000000E+0003  2.12590000000000E+0004  1.94860000000000E+0004  2.03200000000000E+0004
 4.07060000000000E+0003  1.78890000000000E+0004  1.89970000000000E+0004  1.72480000000000E+0004
 4.07070000000000E+0003  1.70670000000000E+0004  1.82290000000000E+0004  1.91890000000000E+0004
 4.07080000000000E+0003  1.71470000000000E+0004  1.76340000000000E+0004  1.89650000000000E+0004
 4.07090000000000E+0003  1.79430000000000E+0004  1.73780000000000E+0004  1.74350000000000E+0004
 4.07100000000000E+0003  1.74810000000000E+0004  1.68410000000000E+0004  1.69560000000000E+0004

